0.0028653464317321777
0.005096805095672607
0.007318291664123535
0.009528478622436524
0.011724540710449219
0.013904588699340819
0.01606745147705078
0.01821125030517578
0.02033391189575195
0.0224326000213623
0.0245032844543457
0.02654184913635254
0.028544200897216796
0.03050557136535644
0.032420806884765625
0.03428453063964844
0.03609072113037109
0.03783309936523437
0.03950526428222656
0.04110044097900391
0.042611618041992184
0.044031684875488274
0.04535325241088867
0.046568859100341795
0.047671192169189455
0.048653022766113274
0.04950727081298828
0.05022726440429687
0.05080656433105468
0.05123920440673828
0.05151984405517578
0.051643566131591795
0.051606018066406245
0.05140362930297851
0.051033458709716796
0.050493217468261714
0.04978155136108398
0.0488976821899414
0.047841514587402344
0.04661404800415039
0.045217094421386717
0.043653270721435544
0.04192627334594726
0.040040710449218746
0.0380019416809082
0.035816337585449214
0.03349105453491211
0.031033779144287104
0.028453020095825194
0.02575801086425781
0.022958572387695313
0.020065246582031248
0.017089157104492186
0.01404188346862793
0.01093561553955078
0.007783125400543212
0.004597486495971679
0.0013920490741729736
-0.0018198612928390502
-0.0050251660346984865
-0.008210733413696289
-0.011363475799560546
-0.014470500946044922
-0.01751910018920898
-0.02049711799621582
-0.023393096923828124
-0.02619587707519531
-0.028894577026367187
-0.03147915267944335
-0.03394034576416015
-0.03626992797851562
-0.038460968017578125
-0.04050716400146484
-0.04240290069580078
-0.044143814086914056
-0.04572683715820312
-0.04715002441406249
-0.04841264724731445
-0.049514930725097654
-0.050457740783691404
-0.05124327087402344
-0.05187517166137695
-0.05235819625854492
-0.05269831848144531
-0.052902851104736325
-0.05298009872436523
-0.052939941406249996
-0.05279414749145507
-0.0525555305480957
-0.05223772048950195
-0.051855091094970704
-0.051422363281249994
-0.05095474624633789
-0.050468204498291015
-0.04997839355468749
-0.04950009536743164
-0.04904816055297851
-0.048637020111083985
-0.04828166961669921
-0.047998321533203124
-0.047802146911621095
-0.04770738983154296
-0.04772785568237305
-0.047876319885253905
-0.04816518783569336
-0.048607315063476556
-0.04921125793457031
-0.04998001861572265
-0.05091798400878906
-0.052028854370117186
-0.05331864166259766
-0.05479883575439453
-0.056474330902099606
-0.05834351348876953
-0.06040426635742187
-0.06265221023559571
-0.0650779571533203
-0.06766874694824218
-0.07040065765380858
-0.0732356719970703
-0.07613931274414062
-0.07907789611816406
-0.08202421569824218
-0.0849638671875
-0.08787078094482421
-0.0907121353149414
-0.09345067596435545
-0.09604017639160155
-0.09845092773437499
-0.10067124938964843
-0.10268184661865234
-0.10445469665527342
-0.10598503112792969
-0.10728861999511718
-0.10841365814208984
-0.10945137786865233
-0.11046373748779297
-0.11147902679443358
-0.11252642822265624
-0.1136299362182617
-0.11482916259765624
-0.11617558288574219
-0.11770910644531249
-0.11943782806396483
-0.12136837768554687
-0.12354771423339841
-0.12599566650390623
-0.12869012451171874
-0.13153288269042968
-0.13427587890625
-0.1365975646972656
-0.13820169067382812
-0.13878044128417968
-0.13794000244140622
-0.13545346069335937
-0.13133087158203124
-0.12567151641845703
-0.11891748046874999
-0.11176691436767577
-0.10480386352539062
-0.09875499725341796
-0.09471343994140624
-0.09260616302490234
-0.09092157745361328
-0.08851210021972655
-0.08360269165039062
-0.07578425598144531
-0.06821177673339844
-0.06193696975708007
-0.055581287384033194
-0.046400169372558586
-0.026247426986694335
0.012221800804138183
0.07133515930175781
0.15183938598632812
0.24820431518554684
0.34905612182617185
0.44259411621093747
0.5147268676757812
0.5521650390624999
0.548416015625
0.5030454101562499
0.4214427490234375
0.31663397216796874
0.20430618286132812
0.09903659057617187
0.015366338729858396
-0.039078224182128904
-0.06531869506835937
-0.06899703979492187
-0.06186984634399414
-0.05447448348999023
-0.050508087158203124
-0.050429298400878904
-0.050903095245361324
-0.0484422378540039
-0.04391056823730469
-0.03927339935302734
-0.03647284698486328
-0.03728943252563476
-0.041301048278808594
-0.04706385040283203
-0.05355171966552734
-0.05949034118652343
-0.06379084777832031
-0.06610340881347657
-0.06627300262451172
-0.06438545989990234
-0.06093050384521484
-0.05645527648925781
-0.0514433479309082
-0.046443088531494134
-0.0419524917602539
-0.03821150970458984
-0.03533449554443359
-0.03334693908691406
-0.03215139389038086
-0.03166163063049316
-0.03179543685913085
-0.032427776336669926
-0.03343287277221679
-0.034726749420166014
-0.03625204467773437
-0.03795233535766601
-0.039765922546386716
-0.041582702636718746
-0.04326990509033203
-0.0447345962524414
-0.04591403961181641
-0.046770328521728514
-0.04728112411499023
-0.04742126846313476
-0.04717372131347656
-0.04654726791381835
-0.04556895065307617
-0.04426285552978516
-0.042650489807128905
-0.040745567321777344
-0.038556133270263665
-0.03610433578491211
-0.033420871734619134
-0.030542325973510743
-0.027508747100830074
-0.02434537124633789
-0.021064247131347656
-0.017671241760253906
-0.01416610527038574
-0.010544859886169433
-0.006799915313720703
-0.002914600372314453
0.0011336028575897215
0.005361333847045898
0.009780469894409179
0.01439909267425537
0.019221645355224606
0.0242553653717041
0.029508033752441407
0.0349846076965332
0.04068842315673828
0.04661934280395508
0.052773429870605466
0.05914481353759765
0.06572480010986327
0.0725006103515625
0.079456787109375
0.08657474517822265
0.09383256530761719
0.10120816040039063
0.10867912292480468
0.11622171783447265
0.12381163024902342
0.13142332458496095
0.13902966308593748
0.14660302734375
0.15411529541015623
0.16153700256347656
0.16883772277832032
0.17598648071289064
0.18295169067382813
0.18970204162597654
0.19620643615722655
0.20243402099609373
0.20835446166992186
0.21393846130371094
0.21915774536132812
0.2239853515625
0.2283956604003906
0.23236454772949217
0.23586984252929685
0.2388917236328125
0.24141278076171874
0.24341789245605466
0.24489465332031252
0.24583320617675777
0.2462267150878906
0.24607144165039063
0.2453664245605469
0.24411383056640623
0.24231849670410155
0.23998812866210936
0.23713314819335934
0.23376666259765624
0.229904296875
0.22556402587890623
0.22076599121093748
0.21553228759765625
0.20988684082031248
0.20385557556152342
0.19746598815917965
0.19074711608886719
0.1837291259765625
0.17644323730468747
0.1689214630126953
0.161196533203125
0.15330169677734376
0.1452703399658203
0.13713583374023436
0.12893135070800782
0.12068969726562499
0.11244316101074218
0.10422330474853515
0.09606060028076172
0.08798437499999999
0.08002255249023438
0.0722014923095703
0.06454582214355468
0.05707833862304687
0.04981974792480468
0.04278870773315429
0.03600170516967773
0.029473033905029294
0.023214828491210936
0.017237054824829103
0.011547516822814942
0.0061519179344177236
0.0010539426803588866
-0.003744660377502441
-0.008243961334228516
-0.012445766448974608
-0.016353555679321286
-0.019972354888916015
-0.02330860710144043
-0.02637006378173828
-0.029165653228759764
-0.03170540428161621
-0.034000339508056636
-0.03606237030029297
-0.03790419006347656
-0.03953915405273437
-0.04098119354248047
-0.04224469757080078
-0.04334445190429687
-0.04429547882080078
-0.045112922668457026
-0.04581192398071289
-0.04640752029418945
-0.046914501190185545
-0.047347312927246095
-0.047719932556152346
-0.0480457649230957
-0.04833752441406249
-0.048607192993164065
-0.048865966796875
-0.04912418365478515
-0.04939131164550781
-0.049675910949707025
-0.04998566436767578
-0.05032740402221679
-0.050707134246826165
-0.051130088806152336
-0.05160078430175781
-0.05212305068969726
-0.052700080871582025
-0.05333451843261718
-0.05402848815917968
-0.054783645629882805
-0.05560120391845703
-0.056481941223144524
-0.05742626571655273
-0.05843426513671875
-0.05950571823120117
-0.060640098571777344
-0.061836624145507814
-0.06309426116943359
-0.0644117431640625
-0.06578762817382812
-0.06722030639648437
-0.06870802307128905
-0.07024885559082031
-0.07184078216552733
-0.07348172760009765
-0.07516964721679688
-0.07690251159667968
-0.07867840576171875
-0.08049549102783202
-0.08235207366943359
-0.08424666595458984
-0.08617797088623046
-0.08814489746093748
-0.09014646911621094
-0.09218181610107422
-0.09425016784667968
-0.09635079193115234
-0.09848303222656249
-0.10064624023437499
-0.10283975219726563
-0.10506279754638671
-0.10731462097167968
-0.10959442138671874
-0.11190137481689452
-0.11423457336425781
-0.11659303283691405
-0.11897558593749999
-0.12138101959228514
-0.12380797576904295
-0.1262550506591797
-0.1287207336425781
-0.13120344543457033
-0.1337014923095703
-0.13621322631835936
-0.13873715209960938
-0.14127174377441404
-0.1438156280517578
-0.146367431640625
-0.14892575073242187
-0.1514893798828125
-0.15405705261230468
-0.1566275939941406
-0.1591997375488281
-0.16177218627929685
-0.16434361267089842
-0.16691276550292966
-0.169478515625
-0.17203982543945312
-0.17459579467773437
-0.17714549255371093
-0.17968801879882812
-0.18222265624999998
-0.18474876403808593
-0.187265625
-0.18977252197265623
-0.19226860046386718
-0.1947528839111328
-0.19722456359863277
-0.19968289184570312
-0.20212713623046874
-0.20455648803710935
-0.20697016906738278
-0.20936740112304686
-0.21174745178222654
-0.2141096954345703
-0.21645333862304686
-0.2187772216796875
-0.22108001708984373
-0.22336016845703122
-0.22561593627929688
-0.22784552001953123
-0.23004687499999998
-0.2322174377441406
-0.2343544464111328
-0.2364552001953125
-0.23851695251464844
-0.24053692626953124
-0.24251206970214842
-0.24443893432617186
-0.24631390380859372
-0.24813327026367182
-0.24989337158203126
-0.25159075927734376
-0.2532218170166015
-0.25478286743164064
-0.25627062988281246
-0.25768222045898437
-0.25901528930664064
-0.2602682495117188
-0.2614395141601562
-0.26252764892578123
-0.26353189086914064
-0.2644520263671875
-0.265288330078125
-0.2660417785644531
-0.2667137451171875
-0.2673054809570312
-0.26781927490234375
-0.2682584228515625
-0.2686268615722656
-0.2689290771484375
-0.2691704406738281
-0.26935687255859375
-0.2694954833984375
-0.26959521484375
-0.2696656494140625
-0.2697166748046875
-0.2697586059570312
-0.26980233764648437
-0.26985913085937496
-0.26994097900390623
-0.2700592346191406
-0.2702236938476562
-0.2704443359375
-0.27073089599609373
-0.2710941772460937
-0.27154617309570306
-0.27209716796874994
-0.2727558898925781
-0.27353051757812497
-0.27442767333984375
-0.2754539184570312
-0.27661618041992186
-0.2779163208007812
-0.27935177612304685
-0.2809214782714844
-0.28262457275390623
-0.28446441650390625
-0.2864511108398437
-0.2885887756347656
-0.2908750610351562
-0.2933066101074218
-0.29587496948242187
-0.2985687561035156
-0.3013756713867187
-0.30427124023437496
-0.30721856689453125
-0.3101818237304687
-0.31312506103515625
-0.31601995849609377
-0.31884820556640625
-0.32157989501953127
-0.3241772766113281
-0.3265946350097656
-0.32877569580078125
-0.33068099975585935
-0.33228503417968747
-0.33355966186523434
-0.33448681640625
-0.3350639343261718
-0.3353033752441406
-0.33524954223632814
-0.33497094726562493
-0.3345261535644531
-0.3339755249023437
-0.33337780761718744
-0.3327889709472656
-0.3322889709472656
-0.3319429931640625
-0.33182672119140627
-0.33205352783203124
-0.33267837524414057
-0.33369689941406244
-0.33503866577148433
-0.3364984130859375
-0.3378070068359375
-0.33874676513671875
-0.3390521850585937
-0.3383550415039062
-0.33639212036132815
-0.33305322265625
-0.32850848388671877
-0.3233090515136719
-0.31814840698242186
-0.3135357360839844
-0.3097587890625
-0.3073148803710937
-0.306737060546875
-0.3080040283203125
-0.31051986694335937
-0.31240032958984376
-0.31051525878906244
-0.3031551513671875
-0.2897002563476562
-0.27014331054687496
-0.24597497558593748
-0.21629483032226562
-0.17910148620605468
-0.132968017578125
-0.07530768585205078
-0.006565099716186523
0.07141070556640623
0.15545870971679687
0.23688787841796874
0.3059868469238281
0.3515057678222656
0.3623126831054687
0.33636254882812494
0.27647082519531246
0.18960391235351562
0.08967051696777344
-0.012733421325683593
-0.1068048858642578
-0.1798084716796875
-0.22822393798828122
-0.2518383636474609
-0.2555183258056641
-0.2520341644287109
-0.24826242065429682
-0.24685034179687498
-0.24806280517578125
-0.2470984649658203
-0.24272406005859373
-0.23706149291992187
-0.23173104858398438
-0.22911265563964842
-0.22993170166015625
-0.23287892150878906
-0.23664048767089843
-0.23980587768554684
-0.24096810913085936
-0.23932353210449217
-0.23484179687499998
-0.22798683166503905
-0.21937757873535155
-0.2098120880126953
-0.2000916748046875
-0.1910819396972656
-0.1838201904296875
-0.17898117065429686
-0.1765260772705078
-0.17595223999023435
-0.17675601196289062
-0.17851110839843748
-0.18085739135742188
-0.18335910034179687
-0.18539219665527343
-0.18651809692382812
-0.18673358154296874
-0.18635168457031248
-0.1856243743896484
-0.18462915039062497
-0.18335739135742188
-0.18180596923828124
-0.18011337280273437
-0.1784120178222656
-0.17665364074707032
-0.17464633178710937
-0.17222821044921874
-0.16933963012695313
-0.16600350952148438
-0.16229312133789062
-0.15823133850097656
-0.15380917358398438
-0.14906031799316408
-0.1440537872314453
-0.13887184143066406
-0.13358615112304686
-0.12822422790527344
-0.12277658081054688
-0.11723404693603515
-0.11159286499023437
-0.1058515167236328
-0.10000997161865234
-0.09405289459228515
-0.08795321655273436
-0.08169290924072264
-0.07526161193847655
-0.06865215301513672
-0.06186083221435546
-0.0548759880065918
-0.047680000305175774
-0.04026326751708984
-0.03262474822998047
-0.02477045440673828
-0.016711170196533204
-0.008459732055664061
-3.366827964782715e-05
0.008538387298583984
0.017216346740722654
0.025959777832031246
0.034736701965332024
0.043530708312988275
0.052335029602050775
0.06113734436035156
0.06992362976074218
0.07867569732666015
0.08737499237060548
0.09602011108398437
0.10461340332031249
0.11314787292480469
0.12161029815673828
0.12998944091796874
0.13828758239746092
0.14653369140625
0.1547772674560547
0.1630506896972656
0.17135487365722657
0.1796596984863281
0.18791961669921875
0.19609901428222656
0.20415402221679685
0.21202952575683592
0.2196588134765625
0.2269501800537109
0.23382968139648436
0.24025900268554687
0.24620498657226558
0.2516234588623047
0.25644668579101565
0.26056546020507815
0.263849853515625
0.26620272827148433
0.26756060791015623
0.26788946533203123
0.2671774291992188
0.265406982421875
0.26258969116210934
0.258775634765625
0.25403399658203124
0.24845709228515622
0.2421004943847656
0.23496508789062498
0.22706427001953125
0.21844346618652344
0.20917799377441404
0.19939186096191405
0.18923188781738282
0.1788188781738281
0.16827580261230468
0.15773239135742187
0.14729656982421876
0.1370753173828125
0.12714044952392575
0.11751312255859375
0.10820846557617186
0.0992389450073242
0.09065550231933593
0.08256163024902342
0.07503890991210938
0.06812959289550781
0.06185647964477539
0.05620885848999023
0.05115335845947265
0.046663879394531246
0.042678581237792966
0.0390954475402832
0.0358348274230957
0.03282882690429687
0.030035432815551755
0.02745476913452148
0.02507857322692871
0.02288475227355957
0.020832401275634762
0.018852251052856442
0.01688834571838379
0.014909687042236327
0.012887312889099119
0.010800445556640625
0.008645791053771973
0.006424511909484862
0.00417198657989502
0.001961822986602783
-0.00015410554409027097
-0.0021427910327911377
-0.00398550534248352
-0.005689166069030762
-0.00725446605682373
-0.008671629905700683
-0.009934357643127441
-0.011034906387329102
-0.011967802047729492
-0.012735443115234375
-0.013336411476135252
-0.013765522003173828
-0.014029035568237303
-0.014140505790710448
-0.014128559112548827
-0.014039750099182128
-0.013908859252929687
-0.013758458137512206
-0.013606849670410155
-0.013463125228881835
-0.01333641242980957
-0.013238168716430663
-0.013171916961669921
-0.013134538650512693
-0.013125419616699219
-0.013144712448120117
-0.013194647789001463
-0.013281041145324706
-0.01340497589111328
-0.013563526153564452
-0.013751914978027342
-0.013962223052978515
-0.014188549041748046
-0.014427666664123534
-0.014676044464111327
-0.014930755615234374
-0.015190114021301267
-0.015452938079833983
-0.01572045421600342
-0.01599644470214844
-0.016282968521118164
-0.016580600738525388
-0.01688958740234375
-0.01720922470092773
-0.01753933334350586
-0.017880363464355467
-0.018231864929199218
-0.018592737197875978
-0.01896254348754883
-0.019341413497924804
-0.019729911804199217
-0.020129234313964843
-0.020540344238281247
-0.02096403121948242
-0.021401580810546876
-0.02185465431213379
-0.02232508850097656
-0.022814893722534178
-0.02332603073120117
-0.023860368728637695
-0.02441997146606445
-0.025007095336914063
-0.02562396621704101
-0.026272836685180663
-0.026955802917480468
-0.027674762725830075
-0.028431575775146482
-0.02922805786132812
-0.03006576919555664
-0.03094599723815918
-0.03186963653564453
-0.032837112426757804
-0.033848747253417966
-0.034904804229736325
-0.03600532150268554
-0.0371501350402832
-0.03833890914916992
-0.03957109451293945
-0.040846122741699215
-0.042163440704345696
-0.04352216720581054
-0.044921062469482416
-0.04635857009887695
-0.047832763671874994
-0.049341453552246096
-0.050882232666015624
-0.05245238494873047
-0.05404881286621093
-0.05566819763183593
-0.0573069839477539
-0.05896140670776367
-0.06062757873535156
-0.062301475524902346
-0.06397879791259765
-0.0656550521850586
-0.06732554626464843
-0.06898543548583984
-0.07062980651855469
-0.07225372314453125
-0.07385222625732422
-0.07542038726806641
-0.07695339965820312
-0.07844654846191405
-0.07989539337158202
-0.08129580688476562
-0.08264383697509765
-0.08393567657470703
-0.08516770935058594
-0.08633645629882812
-0.08743865203857422
-0.08847137451171874
-0.0894318389892578
-0.09031739807128907
-0.09112564849853515
-0.09185449218749998
-0.09250219726562499
-0.09306754302978515
-0.09354960632324218
-0.09394761657714842
-0.09426110839843749
-0.09448995971679687
-0.09463424682617187
-0.0946944122314453
-0.0946710433959961
-0.09456471252441406
-0.09437628173828123
-0.09410695648193358
-0.09375824737548827
-0.09333215332031249
-0.09283090209960937
-0.09225668334960936
-0.09161183166503906
-0.09089873504638671
-0.09011985778808593
-0.08927777862548827
-0.08837493896484375
-0.08741329956054687
-0.08639472198486328
-0.08532127380371093
-0.08419498443603515
-0.08301818847656249
-0.08179322052001953
-0.0805219955444336
-0.07920651245117187
-0.0778492431640625
-0.07645262145996093
-0.07501907348632812
-0.07355101013183593
-0.07205035400390625
-0.07051907348632813
-0.06895983123779297
-0.06737525939941405
-0.06576800537109374
-0.06414137268066405
-0.0624989013671875
-0.06084492874145507
-0.059185264587402336
-0.0575258560180664
-0.05587258911132812
-0.054231853485107416
-0.05260985565185546
-0.051012657165527345
-0.04944686126708984
-0.04791796493530273
-0.04642989349365234
-0.04498708724975586
-0.04359405517578125
-0.04225587844848632
-0.04097986984252929
-0.03977272033691406
-0.038639373779296875
-0.03758521270751953
-0.0366153450012207
-0.035734203338623045
-0.03494773864746093
-0.03425856781005859
-0.03366384124755859
-0.03316249084472656
-0.032755329132080076
-0.03244757080078125
-0.0322518196105957
-0.032177265167236326
-0.032225875854492186
-0.03239799499511718
-0.03269142913818359
-0.03310023498535156
-0.033616996765136714
-0.03422298049926758
-0.03488467407226562
-0.03556789398193359
-0.03623897933959961
-0.036870464324951176
-0.03744585418701171
-0.03794279479980468
-0.0383283462524414
-0.038560749053955075
-0.0385906982421875
-0.03837810134887695
-0.037901947021484375
-0.0371460952758789
-0.03609420776367187
-0.03474322128295898
-0.033107440948486326
-0.031230550765991207
-0.029189094543457028
-0.02706563377380371
-0.02493458557128906
-0.02286556625366211
-0.02092804718017578
-0.019194925308227535
-0.017745706558227537
-0.016676681518554684
-0.016090576171875
-0.016051044464111326
-0.01655329704284668
-0.01750397491455078
-0.018732446670532227
-0.020027477264404295
-0.021148210525512693
-0.021807161331176758
-0.021655996322631835
-0.02036046028137207
-0.017744100570678708
-0.013949020385742186
-0.009360782623291014
-0.004497606754302978
6.0286879539489734e-05
0.003927207469940185
0.006827296733856201
0.008269516944885254
0.007951268672943115
0.00647433853149414
0.0048592953681945794
0.005160898208618164
0.010679025650024414
0.022981639862060546
0.042767898559570305
0.07056614685058593
0.10405048370361328
0.14219015502929688
0.1865128479003906
0.23790472412109373
0.30018222045898435
0.37718051147460935
0.46698284912109367
0.5630064697265624
0.6528310546874999
0.7192787475585938
0.7473670043945313
0.7308367919921874
0.6712877807617187
0.5777656860351562
0.4664184875488281
0.3509422912597656
0.24380050659179686
0.15786535644531247
0.09830968475341796
0.067099853515625
0.06229981994628905
0.07411443328857421
0.09452315521240234
0.11683276367187499
0.1343584442138672
0.14581860351562498
0.15001342773437498
0.1468447265625
0.14020672607421875
0.1324940185546875
0.12614500427246095
0.12230370330810544
0.11882739257812498
0.11470695495605468
0.10971519470214844
0.10440023040771484
0.10054088592529296
0.09878463745117186
0.0988485107421875
0.10019669342041014
0.10200138854980467
0.1037490234375
0.10518959045410156
0.10602902221679686
0.10610397338867186
0.10539334106445311
0.10396163940429687
0.10196165466308593
0.09951815795898437
0.09673085021972656
0.0937007598876953
0.09052555847167969
0.0873213653564453
0.0841847686767578
0.08119979858398438
0.07846942138671874
0.07608051300048828
0.07409616088867187
0.07256764221191406
0.07151951599121092
0.07095703887939453
0.07088829803466797
0.07130680847167968
0.07218540954589843
0.07350056457519531
0.07522468566894532
0.07732990264892578
0.07979650115966797
0.08259197998046874
0.08567524719238281
0.08900151824951172
0.09251893615722655
0.09618828582763671
0.09998542022705077
0.10389071655273437
0.10789210510253906
0.1119853286743164
0.11616838836669921
0.12044641113281249
0.12483200073242187
0.129333740234375
0.13395675659179687
0.1387071990966797
0.1435910186767578
0.14861218261718748
0.15377182006835935
0.15906761169433592
0.1644925537109375
0.1700332336425781
0.1756719055175781
0.1813838195800781
0.18713551330566405
0.19289378356933592
0.1986271057128906
0.20430706787109373
0.20991294860839843
0.2154270324707031
0.22083358764648436
0.22611473083496092
0.23124838256835936
0.23622402954101562
0.241045166015625
0.2457214660644531
0.2502685852050781
0.25470639038085935
0.25905557250976563
0.2633496398925781
0.26764038085937497
0.2719708557128906
0.27636718749999994
0.2808404541015625
0.28537774658203124
0.28995068359375
0.2945254821777344
0.29906396484375
0.30352078247070313
0.30783160400390625
0.3119150085449218
0.3156798400878906
0.319033935546875
0.3218910522460937
0.3241594848632812
0.32572937011718744
0.326468017578125
0.326247802734375
0.3249692993164062
0.32255465698242186
0.3189531555175781
0.3141460876464844
0.30812976074218745
0.3009146118164062
0.2925408935546875
0.28307394409179687
0.27258880615234377
0.2611758422851562
0.2489215698242187
0.23589381408691404
0.2221823272705078
0.20790353393554686
0.19319638061523436
0.1782201232910156
0.1631201171875
0.14803421020507812
0.13310076904296875
0.1184304504394531
0.10411566162109374
0.09023705291748046
0.07683897399902342
0.06394602966308593
0.05159232330322266
0.03980183410644531
0.028608140945434568
0.01807607650756836
0.008241958618164062
-0.0008822950124740599
-0.00929513931274414
-0.01703284454345703
-0.024138641357421876
-0.03066456794738769
-0.036692390441894526
-0.0422910041809082
-0.04750889587402343
-0.052388481140136715
-0.05694519805908203
-0.061182258605957024
-0.06512268829345702
-0.06878664398193358
-0.07220140075683593
-0.07542568206787108
-0.0785013427734375
-0.08145862579345703
-0.08433270263671874
-0.08712925720214844
-0.089841064453125
-0.09245101928710937
-0.09491217041015625
-0.09718255615234375
-0.09924205017089843
-0.1010772476196289
-0.10269132995605468
-0.10409881591796874
-0.10530352783203124
-0.10631375885009765
-0.10714208221435546
-0.10778480529785155
-0.10824286651611328
-0.10852081298828124
-0.10861597442626952
-0.10853927612304687
-0.10831156921386717
-0.10795866394042967
-0.10752105712890625
-0.1070385284423828
-0.10653802490234374
-0.106041748046875
-0.10556556701660155
-0.10511762237548827
-0.10470704650878906
-0.1043383331298828
-0.10400851440429687
-0.1037183837890625
-0.10346977233886719
-0.10326380920410155
-0.10310458374023436
-0.1029928741455078
-0.1029249267578125
-0.10289567565917969
-0.1028970718383789
-0.1029197540283203
-0.10295687103271484
-0.10300232696533201
-0.10305013275146484
-0.10309647369384764
-0.10313832092285155
-0.1031740264892578
-0.10320470428466796
-0.10323106384277343
-0.10325242614746093
-0.10326788330078124
-0.10327594757080077
-0.1032750778198242
-0.10326451110839843
-0.10324342346191405
-0.10321063232421875
-0.1031657257080078
-0.1031091079711914
-0.10304178619384764
-0.10296551513671875
-0.10288233947753905
-0.10279431915283203
-0.10270384979248047
-0.1026136474609375
-0.10252669525146484
-0.10244621276855469
-0.10237561798095703
-0.10231837463378905
-0.10227803802490235
-0.10225826263427734
-0.1022627182006836
-0.10229502868652343
-0.10235864257812499
-0.10245669555664061
-0.10259200286865233
-0.10276707458496093
-0.10298406982421875
-0.10324469757080078
-0.10355033111572265
-0.10390182495117187
-0.10429962158203124
-0.10474407958984375
-0.10523526000976562
-0.10577301025390624
-0.10635698699951171
-0.10698665618896484
-0.10766126251220702
-0.10837998962402343
-0.10914172363281249
-0.10994494628906248
-0.11078796386718749
-0.11166877746582031
-0.11258525848388672
-0.11353521728515624
-0.11451627349853515
-0.11552597045898437
-0.11656181335449217
-0.11762133789062498
-0.11870207214355467
-0.1198016128540039
-0.12091752624511717
-0.12204744720458983
-0.12318911743164061
-0.12434040069580078
-0.12549935913085938
-0.1266642608642578
-0.12783349609375
-0.1290057220458984
-0.13017984008789063
-0.13135494995117186
-0.1325303497314453
-0.1337054748535156
-0.13487994384765625
-0.13605340576171873
-0.13722579956054684
-0.13839700317382814
-0.1395670928955078
-0.1407361145019531
-0.14190423583984374
-0.1430715789794922
-0.14423843383789062
-0.14540518188476562
-0.14657221984863278
-0.14773995971679688
-0.14890872192382812
-0.15007876586914062
-0.15125048828125
-0.15242414855957032
-0.1535999298095703
-0.15477792358398437
-0.1559580383300781
-0.15714007568359376
-0.1583238525390625
-0.15950910949707028
-0.1606953125
-0.16188185119628903
-0.16306784057617188
-0.16425222778320311
-0.1654339599609375
-0.1666117248535156
-0.16778392028808592
-0.16894882202148437
-0.17010447692871092
-0.1712486572265625
-0.17237915039062499
-0.17349340820312498
-0.17458862304687497
-0.17566192626953123
-0.17671011352539062
-0.17772998046875
-0.17871832275390626
-0.17967182922363278
-0.1805869598388672
-0.18146006774902343
-0.18228729248046874
-0.18306466674804686
-0.18378855895996093
-0.18445526123046874
-0.18506079101562498
-0.18560125732421873
-0.18607290649414063
-0.18647213745117186
-0.18679583740234373
-0.1870410461425781
-0.18720463562011716
-0.18728366088867185
-0.18727580261230467
-0.1871789093017578
-0.1869914093017578
-0.18671200561523435
-0.18633953857421873
-0.18587351989746093
-0.1853141174316406
-0.18466201782226563
-0.18391847229003905
-0.18308554077148434
-0.18216606140136718
-0.18116407775878907
-0.1800852813720703
-0.17893569946289062
-0.17772221374511718
-0.17645268249511717
-0.17513531494140624
-0.17377870178222654
-0.17239233398437498
-0.1709853057861328
-0.16956585693359374
-0.16814292907714842
-0.16672552490234374
-0.16532308959960937
-0.16394708251953125
-0.1626092071533203
-0.16131976318359373
-0.16008898925781248
-0.15892681884765625
-0.15784234619140625
-0.15684629821777343
-0.15594766235351562
-0.1551502227783203
-0.15445841979980468
-0.15387802124023436
-0.15341708374023438
-0.15309071350097656
-0.1529120178222656
-0.15288584899902344
-0.1530151672363281
-0.15329974365234375
-0.15373248291015623
-0.15430599975585937
-0.15500439453124998
-0.15579687499999997
-0.1566526184082031
-0.15754005432128904
-0.1584285888671875
-0.15930090332031246
-0.16013697814941405
-0.16090472412109375
-0.16156768798828125
-0.16207678222656247
-0.16238449096679688
-0.16246955871582028
-0.16231689453124998
-0.16191056823730468
-0.16125621032714843
-0.1603699951171875
-0.15929122924804687
-0.15810073852539064
-0.156877197265625
-0.1556877746582031
-0.15460308837890624
-0.15367912292480468
-0.15297589111328125
-0.15257235717773437
-0.15253358459472655
-0.15294149780273436
-0.15388990783691406
-0.1553905334472656
-0.1574046173095703
-0.15983135986328123
-0.16244792175292969
-0.16501104736328123
-0.16727471923828124
-0.16889991760253906
-0.16953790283203124
-0.16895433044433592
-0.1669854736328125
-0.163735595703125
-0.1596014404296875
-0.15497653198242187
-0.15027903747558594
-0.1458328399658203
-0.1417633361816406
-0.1382944641113281
-0.1356337432861328
-0.13337554931640624
-0.13061279296875
-0.12552071380615235
-0.11548572540283202
-0.09870950317382811
-0.07441525268554687
-0.04376791381835937
-0.009010476112365723
0.027937355041503905
0.06613173675537108
0.10897669982910155
0.1604262237548828
0.22432078552246093
0.3043531188964843
0.3937497863769531
0.4811879272460937
0.5524111328125
0.587719970703125
0.5797086791992188
0.5297833251953125
0.4443516235351562
0.34118984985351564
0.23397485351562497
0.13272108459472653
0.04936124420166015
-0.011171180725097657
-0.0469854736328125
-0.05904344177246094
-0.056581893920898435
-0.04932928085327148
-0.04269333267211914
-0.03960355377197265
-0.03805551147460937
-0.03430825042724609
-0.028716720581054685
-0.02212350845336914
-0.014719234466552733
-0.008994708061218262
-0.00626827335357666
-0.007559045314788818
-0.016353187561035154
-0.030977203369140623
-0.04569432067871093
-0.05563347244262695
-0.05422475433349609
-0.0411932373046875
-0.023230325698852538
-0.005650250911712646
0.005940298080444336
0.010053289413452147
0.010736852645874023
0.010541999816894531
0.011255195617675781
0.013456451416015624
0.015422126770019529
0.016419551849365232
0.01662268829345703
0.016111875534057615
0.015300418853759764
0.014367962837219236
0.013149595260620116
0.011653782844543457
0.010021005630493164
0.00836972427368164
0.00682481288909912
0.005499334812164306
0.00447216272354126
0.003808236598968506
0.0035780704021453856
0.0038136725425720213
0.004498843193054199
0.005614352226257323
0.007131940364837646
0.009021734237670897
0.011263566970825195
0.013835405349731445
0.016713050842285155
0.019865190505981442
0.023255292892456054
0.02684335327148437
0.03059005165100098
0.03447099685668945
0.03847398376464843
0.04259395599365234
0.04683137893676757
0.05119121551513671
0.055684001922607425
0.060326370239257805
0.0651392364501953
0.07013574218749999
0.07532115173339843
0.08069986724853515
0.08627677917480468
0.09206350708007813
0.09807270812988281
0.1043078155517578
0.11076121520996092
0.11741683959960937
0.12425871276855469
0.13127130126953124
0.13843597412109374
0.14572525024414062
0.1531048583984375
0.16054557800292968
0.16802821350097655
0.17554872131347657
0.18310569763183593
0.19068518066406248
0.19826119995117186
0.20579452514648439
0.21324513244628904
0.22058724975585936
0.2278095703125
0.23490316772460934
0.2418486328125
0.2486251220703125
0.25521820068359374
0.26163159179687495
0.26787878417968747
0.27394876098632814
0.27979541015625
0.2853403625488281
0.29050643920898434
0.2952410278320312
0.29951116943359374
0.30329949951171875
0.30658407592773435
0.30933010864257815
0.3114965209960937
0.31305026245117185
0.3139740295410156
0.31424768066406245
0.313839111328125
0.31269146728515623
0.31074151611328127
0.30796621704101557
0.3043949584960937
0.3001011352539062
0.29515692138671873
0.2896109313964843
0.28349853515624995
0.27684991455078123
0.2697099609375
0.26213302612304684
0.25416979980468746
0.24585792541503906
0.23722723388671874
0.22832064819335937
0.2192004699707031
0.20995535278320313
0.2006790313720703
0.19143353271484376
0.1822423858642578
0.17309928894042967
0.16400360107421874
0.15497216796875
0.1460289611816406
0.13719679260253906
0.12848664855957032
0.11990938568115234
0.11148811340332031
0.10326016235351562
0.09526435852050781
0.08752618408203125
0.08005644226074218
0.07284970092773436
0.06589884948730469
0.05921070861816406
0.05280566787719727
0.04671283721923828
0.04095497131347656
0.03554582977294921
0.030495918273925778
0.02581631851196289
0.021520694732666015
0.017616571426391604
0.014099504470825195
0.01095414066314697
0.008163412094116211
0.00571442699432373
0.0035975565910339354
0.0018056614398956298
0.0003285642266273498
-0.0008487087488174438
-0.0017434866428375244
-0.002374288558959961
-0.0027590012550354
-0.0029155409336090086
-0.0028631238937377925
-0.002622721195220947
-0.002215839385986328
-0.0016618189811706543
-0.000976840078830719
-0.0001744958162307739
0.0007316780090332032
0.0017274727821350098
0.002798811912536621
0.003932333469390869
0.005116209983825683
0.006339318752288817
0.00759033966064453
0.008857988357543945
0.010132000923156737
0.01140366268157959
0.012665750503540038
0.013912369728088379
0.015138429641723631
0.01633973503112793
0.017513334274291994
0.01865744400024414
0.019771265029907226
0.020854784011840818
0.021908634185791014
0.022934043884277344
0.02393287658691406
0.024907545089721678
0.02586081886291504
0.026795726776123043
0.0277154426574707
0.0286232795715332
0.02952267074584961
0.030417070388793946
0.03130982398986816
0.03220397567749023
0.0331021728515625
0.034006725311279296
0.034919628143310545
0.03584252166748047
0.03677656555175781
0.03772242736816406
0.0386802978515625
0.03965015411376953
0.04063183975219726
0.041624999999999995
0.042628868103027344
0.04364214324951172
0.0446630630493164
0.04568937683105469
0.04671844100952148
0.04774706268310547
0.04877143096923828
0.04978713607788086
0.05078932189941406
0.05177283859252929
0.052732261657714836
0.053661994934082025
0.05455623245239258
0.055409053802490234
0.056214492797851554
0.05696659469604492
0.05765949630737304
0.05828745651245117
0.05884490203857421
0.05932647705078125
0.05972713470458984
0.06004225158691406
0.06026770782470703
0.06039992523193359
0.060435897827148435
0.060373153686523434
0.06020975494384766
0.059944351196289054
0.05957608795166015
0.05910456848144531
0.05852980804443359
0.05785221099853515
0.057072612762451166
0.056192314147949216
0.05521310043334961
0.05413728332519531
0.05296768951416015
0.05170767974853515
0.05036116409301757
0.048932552337646484
0.047426689147949216
0.045848800659179685
0.044204460144042966
0.042499462127685544
0.04073977661132812
0.038931552886962886
0.03708107376098632
0.03519472885131836
0.03327897644042969
0.03134026908874511
0.02938495635986328
0.02741927146911621
0.025449243545532223
0.023480556488037107
0.021518512725830077
0.019567901611328126
0.017632934570312498
0.015717348098754882
0.013824384689331054
0.011956798553466796
0.010116951942443848
0.008306777000427245
0.006527769565582275
0.004781075000762939
0.0030674624443054197
0.0013872901201248168
-0.00025942265987396237
-0.0018731007575988768
-0.0034546928405761717
-0.005005512714385986
-0.006527190685272217
-0.008021644592285156
-0.009490925788879395
-0.010937257766723633
-0.012363109588623045
-0.01377094268798828
-0.015163122177124021
-0.016542022705078124
-0.01790991973876953
-0.019269073486328125
-0.02062180137634277
-0.021970169067382812
-0.02331591033935547
-0.02466049575805664
-0.026004934310913084
-0.027349678039550778
-0.028694684982299802
-0.030039115905761717
-0.03138125610351562
-0.03271883010864258
-0.03404886245727538
-0.03536776733398437
-0.036671684265136714
-0.037956176757812495
-0.0392161636352539
-0.04044618988037109
-0.041640304565429685
-0.04279205703735351
-0.04389494323730468
-0.044941993713378904
-0.04592559432983398
-0.046838020324707026
-0.04767148208618164
-0.048418231964111325
-0.0490709228515625
-0.04962238311767578
-0.05006528472900391
-0.05039280700683594
-0.050598785400390624
-0.05067745590209961
-0.050623725891113275
-0.05043293762207031
-0.05010066604614257
-0.04962344741821289
-0.048998908996582026
-0.04822539520263672
-0.04730233001708984
-0.04623055267333984
-0.0450120849609375
-0.04365096664428711
-0.04215345764160156
-0.04052682113647461
-0.038779609680175776
-0.03692184448242187
-0.03496432876586914
-0.032918701171874995
-0.03079783058166504
-0.02861442947387695
-0.026380556106567383
-0.024109348297119138
-0.021814374923706054
-0.019509971618652342
-0.01721277618408203
-0.014939770698547362
-0.012706583976745603
-0.010529002189636231
-0.008422534942626951
-0.006401570320129394
-0.004481893062591552
-0.0026766433715820315
-0.000993261694908142
0.0005597078800201416
0.0019727060794830324
0.0032336647510528564
0.004323428153991699
0.0052259755134582515
0.005933706283569335
0.006440308570861816
0.006742916107177734
0.006846167564392089
0.006755427837371826
0.006486246109008789
0.006070306301116943
0.0055377168655395504
0.004919402122497559
0.004244450569152832
0.0035280826091766354
0.0027911276817321777
0.002067151069641113
0.0013941015005111694
0.0008220058679580688
0.00039687904715538023
0.00013943204283714292
6.844107806682586e-05
0.0002061895132064819
0.0005517470240592957
0.0010912187099456786
0.0017831661701202392
0.002543731451034546
0.0033005375862121583
0.003996716499328613
0.00457259750366211
0.004979301452636718
0.005153144359588623
0.005016922950744629
0.004519567489624023
0.0035999581813812255
0.002178744554519653
0.00023864781856536865
-0.002194021940231323
-0.005021883964538574
-0.00799760627746582
-0.010854734420776366
-0.013363597869873046
-0.015211019515991209
-0.016039466857910155
-0.015581048965454099
-0.01368147087097168
-0.010490870475769043
-0.006527006149291992
-0.0022913806438446043
0.0019172958135604858
0.005743486404418945
0.008696769714355467
0.010313051223754881
0.010211585998535156
0.0095117130279541
0.010818559646606446
0.016277435302734372
0.02783799171447754
0.04450413513183594
0.06273445892333984
0.08187478637695311
0.1018430938720703
0.12659675598144532
0.1653468322753906
0.22256883239746092
0.3017806396484375
0.40182519531249994
0.5096079711914062
0.61132568359375
0.6898683471679686
0.7276212768554686
0.7206458740234375
0.671760498046875
0.5907086791992187
0.49439599609375
0.3931601867675781
0.29420953369140623
0.20411741638183592
0.1270361862182617
0.07046618652343749
0.039718994140625
0.03441361999511719
0.04749738693237304
0.06582735443115234
0.07930427551269531
0.08173719787597655
0.07435771179199219
0.06485465240478515
0.05750915145874023
0.05511319732666015
0.05695852661132812
0.05801860427856445
0.056281242370605465
0.05142313385009765
0.04410627746582031
0.037106533050537106
0.032065860748291014
0.029188186645507812
0.028482412338256834
0.02944564819335937
0.03144201850891113
0.0341159439086914
0.0370760383605957
0.03980564880371093
0.041907531738281247
0.04321665573120117
0.04366015625
0.04325772476196289
0.042136634826660156
0.04038306427001953
0.03809101486206055
0.03541465377807616
0.0324717903137207
0.02934674263000488
0.026131067276000973
0.022903985977172848
0.01976511192321777
0.01684485626220703
0.014236276626586912
0.011999542236328124
0.010179191589355468
0.00879097557067871
0.007849327564239502
0.007365284919738769
0.007319330215454101
0.0076783990859985345
0.008411672592163086
0.00948594284057617
0.010876669883728027
0.012563029289245605
0.014508365631103514
0.016668949127197262
0.018996717453002927
0.02144028854370117
0.023966550827026367
0.026556827545166015
0.029196586608886715
0.0318814468383789
0.03461239624023438
0.0373942642211914
0.04024393081665039
0.043183410644531246
0.04622559356689453
0.04937731170654296
0.052644191741943354
0.05603001022338867
0.05954622650146484
0.06320989990234374
0.06703026580810546
0.07101029968261718
0.07514889526367187
0.07944127655029296
0.08388024902343749
0.08845223999023437
0.0931305923461914
0.09787517547607422
0.10264599609375
0.107411376953125
0.11215367889404296
0.11686688995361327
0.1215409698486328
0.1261651153564453
0.13072656249999998
0.1352127227783203
0.13962701416015624
0.1439772186279297
0.1482624816894531
0.1524742431640625
0.15660571289062497
0.16066128540039062
0.16466853332519532
0.16867871093749998
0.1727291564941406
0.17682890319824218
0.18096083068847654
0.1850876312255859
0.1891737365722656
0.19317538452148436
0.19703633117675778
0.20068116760253904
0.20400701904296875
0.2069187316894531
0.20934426879882811
0.21122926330566405
0.21252030944824218
0.21314849853515624
0.21301698303222655
0.2120069122314453
0.21002717590332032
0.20702410888671874
0.2029743957519531
0.1978780822753906
0.19173809814453124
0.1845797882080078
0.17645903015136716
0.16747024536132812
0.1577414855957031
0.14738400268554688
0.13648165893554687
0.1251016387939453
0.11331104278564452
0.10119384765624999
0.08885877990722656
0.07642710876464842
0.06399404525756835
0.05163367462158203
0.03940630722045898
0.02736221122741699
0.015553352355957032
0.004011089324951172
-0.007261801719665527
-0.018294811248779297
-0.029137817382812497
-0.039820877075195306
-0.05035071563720703
-0.06072168731689453
-0.07092619323730469
-0.08096461486816404
-0.09084768676757811
-0.10058518981933594
-0.11017035675048828
-0.11959379577636718
-0.12884762573242187
-0.1379254150390625
-0.14682591247558593
-0.1555377960205078
-0.1640355529785156
-0.1722812042236328
-0.1802325439453125
-0.18786056518554686
-0.1951492919921875
-0.20208988952636717
-0.208677001953125
-0.21490692138671874
-0.22077781677246094
-0.22629510498046873
-0.23147294616699218
-0.23632379150390623
-0.24085742187499998
-0.24508236694335936
-0.24900555419921874
-0.2526383056640625
-0.25599697875976557
-0.2591003112792969
-0.2619672546386718
-0.2646148071289062
-0.2670582275390625
-0.2693124084472656
-0.2713920593261719
-0.27331072998046874
-0.27508007812499996
-0.2767092895507812
-0.2782056884765625
-0.2795780029296875
-0.28083602905273436
-0.2819899291992187
-0.28304998779296875
-0.2840256652832031
-0.28492593383789055
-0.28575979614257807
-0.2865364379882812
-0.2872636108398437
-0.2879481811523437
-0.288595947265625
-0.2892115783691406
-0.2897994689941406
-0.2903637084960937
-0.29090765380859374
-0.29143405151367185
-0.2919454345703125
-0.2924439697265625
-0.29293151855468746
-0.2934098205566406
-0.2938800354003906
-0.29434313964843745
-0.2947997131347656
-0.29525024414062495
-0.2956951904296875
-0.2961349182128906
-0.29656961059570314
-0.29699969482421873
-0.2974255676269531
-0.29784796142578124
-0.298267822265625
-0.29868609619140624
-0.2991036071777344
-0.29952099609374994
-0.29993884277343746
-0.30035766601562497
-0.3007779846191406
-0.30120001220703124
-0.3016239013671875
-0.3020496215820312
-0.30247723388671877
-0.30290707397460936
-0.3033395080566406
-0.30377496337890625
-0.3042137145996094
-0.3046560363769531
-0.30510211181640623
-0.30555206298828125
-0.30600592041015623
-0.3064635925292969
-0.30692474365234373
-0.30738906860351556
-0.30785620117187495
-0.3083257141113281
-0.3087972412109375
-0.3092703247070312
-0.3097445678710937
-0.3102191162109375
-0.31069323730468745
-0.3111659851074219
-0.3116361083984375
-0.31210244750976557
-0.3125632934570312
-0.31301708984375
-0.3134620361328125
-0.31389624023437496
-0.3143179626464844
-0.314725341796875
-0.3151165466308593
-0.3154896240234375
-0.31584252929687495
-0.3161734619140625
-0.31648052978515623
-0.3167618408203125
-0.3170155334472656
-0.31723968505859373
-0.3174325561523437
-0.31759265136718745
-0.31771856689453126
-0.31780914306640623
-0.31786328125
-0.3178800354003906
-0.3178584289550781
-0.31779769897460936
-0.31769702148437495
-0.3175556030273437
-0.3173724975585937
-0.3171466369628906
-0.3168768920898437
-0.3165621337890625
-0.31620126342773436
-0.3157931823730469
-0.3153365783691406
-0.31483013916015623
-0.31427239990234374
-0.31366204833984374
-0.31299768066406247
-0.3122777404785156
-0.31150048828125
-0.3106639709472656
-0.30976620483398437
-0.30880517578125
-0.3077787780761719
-0.30668475341796875
-0.30552044677734375
-0.3042831115722656
-0.3029698181152343
-0.3015778198242187
-0.3001041564941406
-0.2985455627441406
-0.2968983154296875
-0.29515853881835935
-0.29332226562499997
-0.2913854370117187
-0.28934423828125
-0.28719436645507807
-0.284931640625
-0.2825519104003906
-0.2800513610839843
-0.2774266967773437
-0.2746752014160156
-0.27179394531249995
-0.2687801818847656
-0.2656319580078125
-0.26234783935546874
-0.258927001953125
-0.25536935424804685
-0.25167517089843744
-0.2478448486328125
-0.24387986755371094
-0.2397828674316406
-0.23555714416503903
-0.23120660400390625
-0.22673591613769528
-0.22215039062499997
-0.21745677185058593
-0.21266371154785155
-0.20778056335449216
-0.20281698608398435
-0.19778321838378907
-0.19269020080566407
-0.18754965209960936
-0.18237423706054687
-0.17717637634277342
-0.17196722412109372
-0.16675817871093748
-0.16156121826171874
-0.15638951110839844
-0.15125787353515624
-0.14618084716796872
-0.1411716766357422
-0.13624322509765627
-0.1314078369140625
-0.12667790222167966
-0.12206665039062499
-0.11758362579345702
-0.11323326873779296
-0.10902139282226561
-0.10495428466796874
-0.10104135894775389
-0.09729924011230467
-0.09373979187011719
-0.09036686706542968
-0.08718406677246093
-0.08419120788574218
-0.0813819351196289
-0.0787498779296875
-0.07627865600585937
-0.07393733978271484
-0.0716986846923828
-0.06953659057617187
-0.06742929077148437
-0.06536830139160156
-0.0633355484008789
-0.061303459167480465
-0.059241191864013665
-0.057105815887451165
-0.05486552429199218
-0.052506732940673824
-0.0500086441040039
-0.0473541030883789
-0.04455327606201172
-0.04162505340576171
-0.03861831283569336
-0.035617584228515624
-0.0326754150390625
-0.02983810997009277
-0.027161998748779295
-0.024683637619018553
-0.022466854095458982
-0.02057905387878418
-0.01904493713378906
-0.017908025741577148
-0.0172299690246582
-0.01701673126220703
-0.017253480911254882
-0.017841606140136718
-0.018493358612060546
-0.018922664642333983
-0.018901718139648437
-0.01812947082519531
-0.01632403564453125
-0.01328952693939209
-0.008883432388305664
-0.0032924847602844236
0.002861467123031616
0.008993200302124024
0.014718702316284178
0.019596717834472657
0.023179710388183592
0.02510702323913574
0.025024759292602537
0.024159301757812498
0.025474517822265622
0.031448509216308596
0.044302543640136714
0.06285173034667968
0.08249641418457031
0.10130393981933593
0.11861886596679687
0.13935003662109374
0.17466113281249998
0.2313180236816406
0.31326995849609374
0.41702111816406245
0.52709716796875
0.6268007812499999
0.6987947998046875
0.7284578247070312
0.7122916870117187
0.6538092041015624
0.5610822753906249
0.4474934387207031
0.32659365844726557
0.21048699951171873
0.11260563659667967
0.042181507110595706
0.0020650410652160644
-0.009097933769226074
-4.679226875305176e-05
0.019673851013183592
0.043433517456054685
0.0651745147705078
0.08328536224365234
0.09683346557617187
0.1053300323486328
0.11146246337890625
0.11674296569824218
0.12248693847656249
0.12854681396484374
0.13211569213867186
0.13199153137207031
0.12828689575195312
0.12240397644042969
0.11709667205810546
0.11370547485351562
0.11249061584472655
0.11360643005371092
0.11668202209472656
0.12134692382812498
0.12727081298828125
0.13365347290039062
0.1396358642578125
0.1447881927490234
0.14889813232421872
0.1518162384033203
0.1535542297363281
0.15416188049316404
0.15371774291992185
0.15251884460449217
0.150935546875
0.1491919250488281
0.14746598815917966
0.14590435791015624
0.14456320190429686
0.14351156616210936
0.14281668090820313
0.14247540283203125
0.14247616577148436
0.14282238769531247
0.14350152587890624
0.14450999450683594
0.14585552978515626
0.14752392578124998
0.1494982452392578
0.15176031494140624
0.1542723388671875
0.15699588012695312
0.15989071655273437
0.16291154479980466
0.16602969360351563
0.16922831726074217
0.1724945373535156
0.17582545471191405
0.1792230987548828
0.18269201660156248
0.1862440490722656
0.1898919219970703
0.19364410400390625
0.1975094299316406
0.20149804687499998
0.20562240600585935
0.2098948059082031
0.21432128906249998
0.218903076171875
0.2236398468017578
0.22852563476562499
0.2335468292236328
0.2386793212890625
0.24388470458984374
0.24912313842773434
0.2543639526367187
0.2595875854492187
0.26478417968749995
0.2699421691894531
0.27504965209960935
0.28009274291992187
0.28505892944335937
0.2899514465332031
0.2947777099609375
0.29953826904296876
0.3042268676757812
0.30883837890625
0.31337957763671875
0.3178807373046875
0.32239599609374997
0.3269662475585937
0.33160311889648436
0.3362903137207031
0.340990234375
0.3456665344238281
0.35027386474609373
0.3547540283203125
0.3590291137695312
0.3629921264648437
0.3665440063476562
0.36960925292968744
0.37213043212890623
0.37405093383789056
0.3752978820800781
0.37576898193359376
0.3753388671875
0.37391064453124995
0.3714260559082031
0.36785864257812495
0.3632065734863281
0.35747155761718746
0.3506786499023437
0.34288500976562497
0.33418743896484376
0.32471716308593745
0.31458810424804684
0.30388562011718745
0.2926776428222656
0.2810321655273437
0.26903512573242183
0.2567982177734375
0.24444673156738278
0.23207978820800781
0.21977499389648436
0.20759599304199217
0.19559634399414064
0.18383111572265626
0.17233412170410156
0.16110992431640622
0.15013011169433593
0.13934585571289063
0.1287294921875
0.1182780303955078
0.10800178527832031
0.09791373443603515
0.08801895141601561
0.07831218719482422
0.06878932189941406
0.059463100433349604
0.050349018096923825
0.04146103668212891
0.03281166076660156
0.02440820503234863
0.016268505096435546
0.008424836158752442
0.0009222572445869446
-0.006190167427062988
-0.012877358436584472
-0.019118095397949217
-0.02489902877807617
-0.03021108627319336
-0.03504743194580078
-0.03940388107299804
-0.04328438568115234
-0.04670244598388672
-0.04967041778564453
-0.052198616027832025
-0.05429683303833007
-0.05597390747070312
-0.05724393463134765
-0.05812693786621093
-0.05864614868164062
-0.05882566833496093
-0.058688251495361325
-0.058255546569824214
-0.05754937744140625
-0.05659200286865234
-0.0554048843383789
-0.054008102416992186
-0.052419433593749995
-0.050655250549316404
-0.048733535766601555
-0.04667359161376953
-0.04449515151977539
-0.042218147277832026
-0.03986168670654296
-0.03744412994384765
-0.03498394012451171
-0.03249930191040039
-0.030006900787353515
-0.027521942138671873
-0.025058193206787108
-0.022627950668334958
-0.02024262237548828
-0.017912696838378903
-0.01564736270904541
-0.013454604148864745
-0.011341362953186034
-0.009313586235046386
-0.00737631607055664
-0.005533655643463134
-0.0037886502742767334
-0.002143340587615967
-0.0005988828539848327
0.000844285488128662
0.0021863529682159422
0.003428145408630371
0.004571098804473876
0.005617121696472167
0.006568464756011963
0.007427611351013183
0.008197206497192381
0.008880249023437498
0.00948019790649414
0.010000873565673828
0.010446353912353514
0.010820898056030273
0.011128950119018554
0.011375151634216306
0.011564363479614257
0.01170151138305664
0.011791268348693847
0.011838043212890625
0.011845993041992187
0.011819016456604003
0.011760801315307616
0.011674776077270507
0.011563987731933593
0.01143110466003418
0.011278499603271484
0.011108224868774413
0.010921996116638183
0.010721221923828125
0.010506927490234373
0.01027980327606201
0.0100402774810791
0.00978853416442871
0.009524566650390623
0.009248245239257812
0.008959320068359374
0.008657456398010254
0.008342278480529784
0.008013345718383788
0.007670143127441406
0.007312141895294189
0.0069387745857238765
0.006549457550048828
0.006143625259399413
0.0057206711769104
0.005279957771301269
0.004820864677429199
0.004342768669128418
0.0038451004028320314
0.0033273665904998777
0.002789051294326782
0.0022296414375305175
0.0016487534046173095
0.0010461044311523436
0.00042158854007720944
-0.00022462734580039976
-0.0008922666311264038
-0.0015808851718902587
-0.0022896630764007568
-0.0030174472332000733
-0.003762787342071533
-0.0045239033699035645
-0.005298848628997803
-0.006085590839385986
-0.006881789207458496
-0.007684789657592773
-0.008491777420043945
-0.00929976749420166
-0.010105656623840331
-0.010906257629394532
-0.011698089599609374
-0.012477299690246581
-0.013239921569824217
-0.013981990814208985
-0.01469964027404785
-0.015389113426208493
-0.01604652214050293
-0.0166678466796875
-0.01724909973144531
-0.017786336898803712
-0.01827579879760742
-0.018713844299316405
-0.019096563339233395
-0.019419891357421875
-0.019679998397827147
-0.01987321853637695
-0.019996234893798828
-0.020046314239501952
-0.02002072143554687
-0.01991685676574707
-0.019732915878295895
-0.019467771530151366
-0.019120826721191406
-0.01869218063354492
-0.018182222366333007
-0.01759145736694336
-0.016921226501464843
-0.016173927307128907
-0.015352436065673826
-0.014460136413574218
-0.01350128650665283
-0.012480856895446776
-0.01140525722503662
-0.010282764434814452
-0.009122248649597167
-0.007932719230651855
-0.006723758697509765
-0.005505317211151123
-0.004287685871124267
-0.0030817236900329585
-0.0018971545696258544
-0.0007421298027038573
0.0003749208450317382
0.001445373296737671
0.0024593620300292964
0.0034053754806518555
0.004273342132568359
0.005054479598999023
0.00573996067047119
0.0063220267295837395
0.006792702674865722
0.007143456935882568
0.007370889663696288
0.007476103305816649
0.007458134651184081
0.007315752983093261
0.007042872428894042
0.006626152038574218
0.006058633804321289
0.005339683055877685
0.004469234466552735
0.0034520888328552243
0.0022958698272705076
0.0010091456174850463
-0.0003866332769393921
-0.001857143521308899
-0.0033696794509887693
-0.004891448497772216
-0.006397745609283447
-0.007874366760253906
-0.009295344352722166
-0.010627622604370116
-0.01183085536956787
-0.012853609085083007
-0.013661584854125976
-0.014234214782714843
-0.014547042846679686
-0.014584996223449706
-0.014348872184753418
-0.013851798057556151
-0.01313873291015625
-0.012280730247497557
-0.011336936950683593
-0.010367622375488281
-0.009432122230529786
-0.008583924293518067
-0.007896763324737549
-0.007432324409484862
-0.0072608885765075674
-0.007478578567504882
-0.008129271507263183
-0.009204001426696777
-0.010624149322509765
-0.012187870979309082
-0.013635425567626952
-0.014738340377807616
-0.015230155944824218
-0.014788274765014648
-0.01316359519958496
-0.01022208499908447
-0.006122601032257079
-0.0013710988759994506
0.0033856287002563476
0.007594597816467285
0.010944459915161133
0.013083005905151365
0.013532472610473632
0.012082010269165038
0.009178200721740722
0.006626227855682372
0.0073430757522583
0.013852267265319823
0.02738256454467773
0.04665578842163086
0.06961891937255858
0.09553746795654296
0.12484078979492187
0.16216030883789062
0.21257742309570313
0.278342041015625
0.36088763427734377
0.45450756835937495
0.5477552490234374
0.628388427734375
0.6812343139648437
0.6951861572265625
0.668746826171875
0.6053635864257813
0.5136611328124999
0.40644625854492183
0.29361657714843753
0.18534759521484373
0.09437553405761719
0.029133367538452148
-0.00636963415145874
-0.013964831352233885
-0.0045403213500976565
0.010132654190063477
0.023641405105590818
0.033604125976562496
0.042763526916503904
0.05519080352783203
0.07061621856689453
0.08681179809570312
0.10101519775390624
0.1102572021484375
0.11381034088134766
0.11253833770751953
0.10745068359374998
0.10005457305908202
0.09188659667968749
0.08400889587402342
0.07737055969238281
0.07264018249511718
0.07013397979736327
0.0699303741455078
0.0718630142211914
0.07548139190673828
0.08014937591552734
0.0852177505493164
0.09004412078857421
0.09420068359374999
0.09744259643554687
0.09964433288574219
0.10084661865234373
0.1011717300415039
0.10080735778808593
0.10001186370849609
0.09907440185546874
0.09821441650390624
0.09758883666992188
0.09728886413574217
0.09732640838623047
0.09770870971679686
0.0984345245361328
0.09948268127441406
0.10082647705078124
0.10243572998046875
0.10428268432617187
0.10635024261474608
0.10862891387939452
0.11110250854492186
0.11374720764160155
0.11652602386474609
0.11939154815673828
0.1222945098876953
0.12518482971191405
0.12802557373046874
0.1307928009033203
0.1334673614501953
0.13603771972656248
0.13849665832519528
0.14084062194824218
0.14307638549804688
0.14521693420410156
0.14727214050292967
0.14925045776367188
0.15115748596191406
0.1529952392578125
0.1547734375
0.15650633239746092
0.1582089385986328
0.15989976501464845
0.1615895080566406
0.1632796173095703
0.16497003173828123
0.1666587219238281
0.1683388214111328
0.16999833679199217
0.1716142578125
0.17314999389648436
0.17457284545898438
0.17586186218261718
0.17700920104980467
0.17801922607421874
0.17889224243164062
0.1796250762939453
0.1802126007080078
0.180650390625
0.1809483642578125
0.1811206359863281
0.18117306518554688
0.18110209655761716
0.1809068603515625
0.1805992736816406
0.18021397399902342
0.1798122100830078
0.1794436492919922
0.17912530517578124
0.17884611511230467
0.17857200622558594
0.17826608276367187
0.17788911437988278
0.1773939971923828
0.1767117004394531
0.17574876403808593
0.1744246063232422
0.17268562316894528
0.17050753784179687
0.1678705596923828
0.16472523498535155
0.1609870910644531
0.1565396270751953
0.15127999877929685
0.145148193359375
0.1381122283935547
0.13015724182128907
0.12128309631347656
0.11150718688964843
0.10087097930908202
0.08946662139892578
0.07741493225097655
0.06480274200439452
0.051681293487548824
0.03806101989746093
0.023939992904663084
0.009366238594055176
-0.005569506645202636
-0.02074971008300781
-0.03604993438720703
-0.05136607360839844
-0.0665951919555664
-0.08161756896972656
-0.0963296661376953
-0.11065689849853515
-0.12455101776123045
-0.13802006530761718
-0.15109185791015625
-0.16374826049804686
-0.1759418029785156
-0.18758966064453123
-0.19858636474609373
-0.20887539672851563
-0.21843421936035154
-0.2272503662109375
-0.23533905029296873
-0.24272532653808593
-0.24945680236816403
-0.2556258087158203
-0.2613153686523438
-0.2665765075683594
-0.27144268798828125
-0.27590917968749995
-0.27996136474609373
-0.2836222534179687
-0.2869282836914062
-0.28993243408203123
-0.29271374511718745
-0.29532666015625
-0.2978111572265625
-0.30021417236328124
-0.30255709838867184
-0.30484332275390624
-0.30705648803710933
-0.30914251708984375
-0.3110526733398437
-0.31276583862304685
-0.31427261352539065
-0.3155831604003906
-0.316716796875
-0.31767816162109375
-0.318474365234375
-0.3191161499023437
-0.31959912109375
-0.31992413330078123
-0.3200948791503906
-0.32010675048828124
-0.31996807861328125
-0.31969931030273435
-0.31932846069335935
-0.31889990234375
-0.318456787109375
-0.31802801513671874
-0.317636962890625
-0.3173003845214844
-0.3170278930664062
-0.3168297424316406
-0.31671051025390623
-0.3166664123535156
-0.3166973266601562
-0.3168043823242187
-0.3169882507324218
-0.31725253295898437
-0.3175970153808594
-0.31801663208007813
-0.3185048217773437
-0.3190518188476562
-0.3196463012695312
-0.32027899169921875
-0.32094073486328123
-0.32162213134765627
-0.3223155517578125
-0.3230138244628906
-0.32371066284179684
-0.32440216064453126
-0.325083740234375
-0.3257490234375
-0.3263912658691406
-0.32700271606445314
-0.3275754089355469
-0.32810174560546873
-0.32857369995117186
-0.3289825134277344
-0.3293202209472656
-0.32957940673828123
-0.32975332641601557
-0.3298357543945312
-0.3298209838867187
-0.3297035522460937
-0.3294788208007812
-0.3291429443359375
-0.328692626953125
-0.32812512207031247
-0.327438232421875
-0.3266302185058593
-0.32570004272460934
-0.32464733886718744
-0.32347213745117187
-0.3221750793457031
-0.32075738525390624
-0.3192205810546875
-0.3175667114257812
-0.31579827880859374
-0.31391815185546873
-0.3119293212890625
-0.30983526611328127
-0.30763937377929684
-0.30534542846679685
-0.30295764160156247
-0.30048040771484374
-0.29791864013671876
-0.29527767944335936
-0.29256307983398433
-0.28978082275390626
-0.2869372863769531
-0.2840390625
-0.2810925903320312
-0.27810461425781247
-0.27508172607421877
-0.2720304260253906
-0.2689571838378906
-0.2658681945800781
-0.26276940917968744
-0.2596668090820312
-0.25656597900390626
-0.25347224426269527
-0.2503906097412109
-0.24732562255859372
-0.24428147888183593
-0.24126205444335935
-0.2382706298828125
-0.2353100891113281
-0.23238272094726561
-0.22949041748046872
-0.2266346435546875
-0.22381658935546875
-0.2210369110107422
-0.21829583740234376
-0.21559318542480466
-0.2129283752441406
-0.21030046081542966
-0.20770822143554687
-0.20514996337890623
-0.20262335205078125
-0.20012567138671872
-0.19765371704101561
-0.19520384216308592
-0.19277215576171874
-0.19035409545898435
-0.1879444580078125
-0.1855377960205078
-0.18312838745117188
-0.1807104797363281
-0.1782782287597656
-0.1758255462646484
-0.17334619140625
-0.17083392333984374
-0.16828256225585936
-0.16568632507324219
-0.16303979492187498
-0.16033749389648436
-0.15757409667968747
-0.15474481201171875
-0.15184536743164062
-0.1488720703125
-0.1458220977783203
-0.14269271850585935
-0.13948146057128907
-0.13618682861328124
-0.13280801391601563
-0.12934481811523438
-0.12579779052734374
-0.12216779327392578
-0.11845594024658203
-0.11466422271728514
-0.11079574584960937
-0.1068541030883789
-0.10284356689453124
-0.0987693634033203
-0.09463761901855468
-0.09045604705810546
-0.08623451995849608
-0.08198361206054687
-0.07771422576904297
-0.07343801879882812
-0.06916718292236328
-0.06491442108154295
-0.060693115234375
-0.05651546478271484
-0.05239192199707031
-0.048333148956298824
-0.04434994888305664
-0.04045435333251953
-0.03665998840332031
-0.032978610992431635
-0.029420379638671872
-0.025995275497436524
-0.022711975097656247
-0.01957947540283203
-0.016607374191284177
-0.013799758911132812
-0.011155960083007812
-0.008677671432495116
-0.006366846561431884
-0.004230793952941894
-0.002284857511520386
-0.0005373331308364868
0.00101031756401062
0.0023573181629180907
0.0035083427429199216
0.004470970153808593
0.005253536701202393
0.005878068447113037
0.006380559921264648
0.006795399665832519
0.007157310485839843
0.007492523193359375
0.007815791130065919
0.008154776573181153
0.00854510498046875
0.009030822753906249
0.009668240547180174
0.010494518280029296
0.01153085422515869
0.012800893783569335
0.014317869186401365
0.016078384399414062
0.01806552314758301
0.02022916984558105
0.022490413665771484
0.02478030776977539
0.02702938652038574
0.02917077255249023
0.03114357376098633
0.032866722106933595
0.03427339935302734
0.035278968811035157
0.03577142333984375
0.03571195220947265
0.03511760330200195
0.03408171081542968
0.032833648681640626
0.031641098022460935
0.030731769561767576
0.030400611877441405
0.03099583435058594
0.03274495315551758
0.03577474975585937
0.03991291046142578
0.04461486053466797
0.049268573760986326
0.053383125305175784
0.05666014099121094
0.05879565429687499
0.059491943359374994
0.058675033569335934
0.05673851776123046
0.05550469970703125
0.05788033294677734
0.06616015625
0.08227288818359374
0.10554794311523437
0.1329290771484375
0.16338619995117187
0.19546730041503904
0.2313100891113281
0.27807431030273433
0.33933392333984375
0.4192606201171875
0.517216552734375
0.6204727172851562
0.7152182006835938
0.7838090209960937
0.8084127807617187
0.7859351806640624
0.7201613769531249
0.6204798583984374
0.5044608764648437
0.3837431945800781
0.2672782592773438
0.16765150451660155
0.09324939727783202
0.05118958282470703
0.04529413604736328
0.06658175659179687
0.09971650695800781
0.1299474334716797
0.14546810913085936
0.144999755859375
0.13630062866210937
0.12795953369140625
0.12643003845214845
0.13315805053710936
0.14365414428710935
0.15211050415039062
0.15540625
0.15314842224121095
0.14764024353027344
0.14252346801757812
0.1394953155517578
0.13878874206542968
0.14036041259765625
0.14379374694824218
0.14902531433105468
0.15607762145996093
0.16432012939453125
0.172780029296875
0.18084494018554687
0.18822027587890625
0.1947851867675781
0.20053373718261716
0.20529161071777344
0.2088855590820312
0.21141139221191405
0.21313059997558592
0.21423837280273436
0.21481088256835937
0.2148205108642578
0.2142039794921875
0.21300407409667968
0.21132638549804686
0.2092402801513672
0.20677684020996093
0.2039450225830078
0.2007598114013672
0.19728369140625
0.19361248779296875
0.18984936523437498
0.18609321594238282
0.1824081573486328
0.178845703125
0.17546505737304688
0.17233479309082028
0.1695401458740234
0.16714816284179687
0.16518988037109375
0.1636739501953125
0.1626033020019531
0.16198178100585936
0.1618214416503906
0.16213110351562499
0.1628898010253906
0.16406439208984375
0.16560824584960937
0.16746322631835936
0.16959599304199216
0.17198153686523437
0.17459083557128904
0.17739486694335938
0.18035470581054686
0.18343661499023436
0.18662709045410156
0.1899241943359375
0.19332360839843749
0.19681907653808595
0.20039866638183593
0.20404954528808594
0.20777552795410154
0.21158374023437498
0.21548217773437497
0.2194823760986328
0.22358175659179688
0.22776986694335935
0.2320361328125
0.23636495971679686
0.2407378234863281
0.24513330078124998
0.24952075195312495
0.2538626708984375
0.25812487792968747
0.2622740478515625
0.26627752685546874
0.2701039123535156
0.273716552734375
0.27707739257812497
0.28014996337890624
0.28289813232421873
0.28528878784179684
0.2872918701171875
0.2888779296875
0.2900201416015625
0.2906958618164062
0.2908849487304687
0.2905707702636719
0.2897408142089844
0.28838311767578123
0.28648727416992187
0.2840458984375
0.2810535888671875
0.2775079345703125
0.27341015625
0.2687637329101562
0.2635748596191406
0.25785339355468745
0.2516123809814453
0.2448681182861328
0.23764007568359372
0.22995016479492186
0.22182241821289062
0.21328355407714844
0.20436236572265623
0.1950897979736328
0.1854987030029297
0.17562358093261718
0.1655002746582031
0.155166015625
0.14465888977050778
0.13401759338378905
0.12328119659423827
0.11248876953124999
0.10167906188964844
0.09089032745361328
0.08016003417968749
0.06952445983886718
0.05901877212524413
0.04867683029174805
0.038530853271484374
0.028611446380615232
0.018947370529174803
0.009565217018127441
0.000489410400390625
-0.008257852554321288
-0.016656850814819334
-0.0246903076171875
-0.032343421936035156
-0.03960414123535156
-0.04646307373046875
-0.05291338348388672
-0.05895079803466797
-0.06457350158691406
-0.06978202056884765
-0.07457933044433593
-0.07897064208984375
-0.08296334075927733
-0.08656680297851563
-0.08979228210449218
-0.09265280151367188
-0.09516300201416016
-0.09733895874023438
-0.09919794464111327
-0.10075829315185546
-0.10203909301757813
-0.10306004333496094
-0.10384133148193359
-0.10440332794189452
-0.10476654052734374
-0.10495135498046874
-0.10497792053222656
-0.10486600494384765
-0.1046348876953125
-0.10430319976806639
-0.10388875579833984
-0.10340847778320311
-0.10287831115722655
-0.10231305694580077
-0.1017264175415039
-0.10113090515136718
-0.10053782653808593
-0.09995717620849608
-0.09939775848388671
-0.09886712646484375
-0.09837162780761718
-0.09791641998291015
-0.09750543975830077
-0.09714138793945311
-0.09682587432861327
-0.09655937194824218
-0.0963412857055664
-0.09617003631591796
-0.09604315185546873
-0.09595728302001953
-0.09590839385986327
-0.09589181518554686
-0.09590242004394531
-0.09593463897705078
-0.09598261260986327
-0.09604020690917968
-0.09610118865966796
-0.09615922546386718
-0.0962080078125
-0.09624131774902343
-0.09625305938720702
-0.09623731231689452
-0.0961884536743164
-0.09610116577148436
-0.09597048950195312
-0.09579188537597656
-0.09556118774414062
-0.095274658203125
-0.09492898559570312
-0.09452122497558593
-0.09404885864257811
-0.09350979614257812
-0.09290229797363281
-0.09222502136230468
-0.09147706604003905
-0.09065792083740233
-0.08976753234863281
-0.08880625915527343
-0.08777493286132812
-0.08667478942871093
-0.08550743865966796
-0.08427487182617187
-0.08297940826416016
-0.08162364196777343
-0.08021040344238281
-0.07874271392822264
-0.07722382354736328
-0.07565708923339844
-0.07404602050781249
-0.07239425659179687
-0.07070555114746092
-0.06898372650146484
-0.06723270416259765
-0.06545642852783203
-0.06365890502929687
-0.061844242095947265
-0.06001655578613281
-0.05818002319335937
-0.056338912963867185
-0.05449759674072265
-0.05266056823730468
-0.05083252716064453
-0.04901828765869141
-0.04722280502319336
-0.04545117568969726
-0.04370860290527344
-0.04200035858154297
-0.040331787109374996
-0.03870823287963867
-0.0371349983215332
-0.0356173095703125
-0.034160263061523435
-0.03276876831054687
-0.03144758987426757
-0.030201343536376952
-0.02903443145751953
-0.027950979232788085
-0.026954790115356446
-0.026049421310424804
-0.02523816108703613
-0.02452400970458984
-0.023909578323364256
-0.02339706230163574
-0.022988254547119138
-0.0226845588684082
-0.022487037658691405
-0.02239626312255859
-0.0224122257232666
-0.022534416198730464
-0.02276171875
-0.02309232711791992
-0.023523754119873046
-0.024052761077880857
-0.02467519760131836
-0.025386234283447263
-0.02618036079406738
-0.027051227569580078
-0.027991928100585938
-0.02899503517150879
-0.03005249786376953
-0.03115570068359375
-0.03229558181762695
-0.033462684631347654
-0.034647304534912104
-0.035839710235595706
-0.03702996826171875
-0.03820795440673828
-0.039363601684570315
-0.04048713302612304
-0.04156911468505859
-0.042600379943847654
-0.04357202911376953
-0.04447546768188477
-0.04530262756347656
-0.04604610443115234
-0.04669913482666015
-0.047255542755126945
-0.04770968627929687
-0.048056804656982414
-0.04829328536987304
-0.04841623306274414
-0.04842382431030273
-0.048315723419189445
-0.0480928840637207
-0.047757919311523435
-0.047315498352050775
-0.04677137756347656
-0.04613238525390625
-0.045407279968261716
-0.04460600280761718
-0.04373907470703125
-0.04281814193725585
-0.0418552131652832
-0.04086219787597656
-0.039852127075195316
-0.038838733673095704
-0.037836051940917964
-0.03685914230346679
-0.035923812866210936
-0.03504598236083984
-0.03424124908447265
-0.033524864196777346
-0.03291169738769531
-0.03241630935668945
-0.03205143356323242
-0.03182681274414062
-0.03175156021118164
-0.03183445358276367
-0.03208723068237304
-0.03252562713623047
-0.033162136077880856
-0.03400523376464844
-0.035060333251953124
-0.03632935333251953
-0.0378099136352539
-0.03949433898925781
-0.04136599349975586
-0.04339720153808593
-0.04555836105346679
-0.04781959152221679
-0.050153949737548824
-0.05254049682617187
-0.05495581817626953
-0.057373123168945314
-0.05975527191162109
-0.06205743789672851
-0.06424185943603515
-0.0662784652709961
-0.06814745330810547
-0.06983155822753905
-0.07131923675537108
-0.07261984252929687
-0.07377322387695312
-0.07485152435302733
-0.07592898559570312
-0.07706402587890625
-0.07829798126220702
-0.07967381286621092
-0.08125215148925781
-0.08309490203857423
-0.08526576232910156
-0.0877979965209961
-0.09071150970458983
-0.09406365966796874
-0.09788267517089844
-0.10214125823974608
-0.1067200698852539
-0.11136988830566406
-0.11578933715820311
-0.11970765686035156
-0.1228378219604492
-0.1248100357055664
-0.12531275177001952
-0.12417198181152342
-0.12151630401611327
-0.11777226257324218
-0.11335418701171875
-0.10870954895019531
-0.10429966735839842
-0.1006631851196289
-0.09856150817871094
-0.09761701202392577
-0.09592433166503905
-0.09180430603027342
-0.08355502319335936
-0.07173829650878906
-0.059777790069580075
-0.04791497421264648
-0.03378847885131835
-0.012355363845825194
0.024200115203857422
0.07843665313720703
0.14776919555664061
0.22746722412109374
0.3116463623046875
0.3955174865722656
0.4743220520019531
0.5405796508789062
0.5814405517578125
0.5852001953125
0.5466930541992187
0.46756683349609374
0.36136145019531246
0.2463235626220703
0.13780595397949216
0.04984162521362304
-0.011125795364379881
-0.04564601898193359
-0.05742822647094726
-0.054831062316894524
-0.046298679351806635
-0.03794160461425781
-0.03244361114501953
-0.029659469604492186
-0.028745704650878907
-0.02756462287902832
-0.026175045013427736
-0.024966060638427733
-0.023355749130249022
-0.02330864334106445
-0.025446281433105466
-0.02942987251281738
-0.03560093688964843
-0.04203673553466796
-0.0469876594543457
-0.05022319412231445
-0.05149486541748047
-0.05114176940917968
-0.049901168823242185
-0.047906696319580076
-0.045226566314697264
-0.04246736907958984
-0.04010421752929687
-0.03835099792480468
-0.03739183044433594
-0.0371573486328125
-0.03745415496826172
-0.038272895812988275
-0.03961183166503906
-0.041263732910156246
-0.04306404495239258
-0.044889839172363284
-0.04658788681030273
-0.048097572326660155
-0.0493466796875
-0.05021865463256835
-0.050639568328857416
-0.05057967376708984
-0.0500235481262207
-0.04897055435180664
-0.04742470550537109
-0.04538261413574218
-0.042867465972900386
-0.03991349411010742
-0.036549633026123046
-0.03280977630615234
-0.02871890068054199
-0.024308326721191403
-0.01962220001220703
-0.014709794044494628
-0.009626977920532225
-0.004417411327362061
0.0008900293111801147
0.00627066421508789
0.011705480575561523
0.017180225372314454
0.02268226623535156
0.028207241058349607
0.03376073837280273
0.03934265899658203
0.044947341918945304
0.050568359375
0.05619438171386718
0.061816818237304685
0.06743068695068359
0.07302850341796875
0.07860064697265624
0.08413513183593749
0.08961822509765624
0.0950365753173828
0.10037695312499999
0.10562408447265625
0.11076041412353514
0.11576615905761717
0.1206206817626953
0.12530563354492188
0.12980245971679688
0.13409140014648435
0.1381516876220703
0.14196060180664063
0.14549661254882812
0.14874053955078123
0.15167390441894532
0.1542783966064453
0.156535400390625
0.1584252014160156
0.15993107604980467
0.16103993225097654
0.1617366943359375
0.16200608825683593
0.1618287200927734
0.16118002319335936
0.16004545593261718
0.15842034912109373
0.15630523681640623
0.15370875549316404
0.15063900756835938
0.147100830078125
0.1431085052490234
0.13868460083007814
0.13384329223632813
0.12859478759765625
0.12293671417236328
0.11685100555419921
0.11033538818359374
0.10339978027343749
0.09606523132324218
0.08837017059326172
0.08033853149414062
0.07197828674316406
0.06329873657226562
0.054305110931396484
0.04500242614746093
0.0354047966003418
0.025507431030273434
0.01528592872619629
0.004748678207397461
-0.006071709156036377
-0.017110763549804685
-0.028262561798095703
-0.03944630432128906
-0.050604892730712885
-0.061687892913818355
-0.07266374969482421
-0.08348649597167968
-0.09409056091308593
-0.10442153930664061
-0.11443142700195312
-0.12406356811523438
-0.13326626586914062
-0.14196159362792968
-0.15004078674316404
-0.15744348144531248
-0.16414898681640622
-0.17017605590820312
-0.17559710693359376
-0.180459716796875
-0.1847841796875
-0.18859518432617187
-0.19190905761718746
-0.19474902343749997
-0.1971529083251953
-0.19914222717285154
-0.20072320556640624
-0.20192076110839843
-0.20276724243164063
-0.203320556640625
-0.20367108154296873
-0.20387191772460936
-0.20394369506835935
-0.20388299560546874
-0.20365019226074216
-0.20322412109375
-0.20260641479492186
-0.2017918701171875
-0.20077647399902343
-0.19956130981445314
-0.19814608764648436
-0.19654757690429686
-0.19480137634277345
-0.19292813110351562
-0.1909384307861328
-0.1888307189941406
-0.18658517456054685
-0.1841995391845703
-0.18168815612792968
-0.17907243347167967
-0.17638671875
-0.17365856933593748
-0.170905517578125
-0.16814979553222656
-0.165415771484375
-0.16272048950195311
-0.1600767822265625
-0.15748751831054686
-0.15494366455078123
-0.1524419708251953
-0.14998439025878904
-0.14757403564453125
-0.14521809387207033
-0.14291926574707028
-0.1406752014160156
-0.13848335266113282
-0.13633976745605467
-0.1342397766113281
-0.1321791534423828
-0.1301512756347656
-0.1281471405029297
-0.12616002655029296
-0.12418510437011719
-0.12221939086914062
-0.12026266479492187
-0.11831359100341796
-0.11636945343017578
-0.11442837524414062
-0.11248865509033201
-0.1105486373901367
-0.10860699462890624
-0.10666189575195312
-0.10471070861816406
-0.10275195312499999
-0.1007850570678711
-0.09880995941162109
-0.09682728576660156
-0.09483789825439452
-0.09284274291992187
-0.09084324645996093
-0.08884124755859374
-0.08683863830566406
-0.08483741760253906
-0.082839599609375
-0.08084715270996093
-0.07886209869384765
-0.07688661193847655
-0.0749228057861328
-0.07297274780273437
-0.07103858184814453
-0.06912236022949218
-0.06722620391845703
-0.06535221862792967
-0.06350233459472657
-0.061678207397460924
-0.05988134765625
-0.05811293792724609
-0.05637397003173828
-0.05466522598266601
-0.052987113952636715
-0.051339668273925776
-0.049722846984863275
-0.04813652038574218
-0.04658046722412109
-0.045054477691650385
-0.04355802917480469
-0.042090324401855464
-0.04065046691894531
-0.039237434387207025
-0.037850051879882815
-0.03648708343505859
-0.03514717102050781
-0.03382891082763672
-0.03253103256225586
-0.03125239181518555
-0.029992010116577143
-0.028749120712280272
-0.027523117065429686
-0.026313591003417968
-0.025120300292968748
-0.02394314384460449
-0.022782188415527344
-0.021637649536132814
-0.020509866714477538
-0.01939929389953613
-0.018306564331054685
-0.017232427597045897
-0.016177751541137694
-0.015143529891967773
-0.014130783081054686
-0.013140590667724609
-0.012174127578735351
-0.011232583999633788
-0.010317075729370117
-0.00942864990234375
-0.008568300247192382
-0.007736971855163573
-0.006935618877410888
-0.006165093421936035
-0.005426098346710205
-0.0047192215919494625
-0.004044901847839355
-0.003403466701507568
-0.0027949955463409423
-0.00221921181678772
-0.0016755619049072265
-0.001163189172744751
-0.0006807742118835449
-0.0002265963405370712
0.00020148232579231262
0.0006061826348304748
0.0009905075430870056
0.0013577040433883666
0.0017115261554718018
0.0020560359954833983
0.002395494222640991
0.002734530210494995
0.0030780801773071286
0.0034312014579772946
0.0037991931438446044
0.004187489986419678
0.004601379871368407
0.0050461974143981925
0.005527287483215332
0.006049717426300049
0.006618218421936035
0.007237280845642089
0.007911258697509764
0.008644424438476562
0.009440879821777342
0.010304176330566406
0.011237294197082519
0.012242753028869627
0.013322555541992187
0.014478292465209961
0.01571070671081543
0.01701921272277832
0.018402404785156246
0.01985834312438965
0.021384067535400387
0.022976066589355467
0.02462981796264648
0.02633842849731445
0.028093475341796872
0.029885469436645506
0.03170348739624023
0.033535968780517574
0.035371311187744135
0.03719668960571289
0.038998638153076165
0.04076458358764648
0.042481540679931644
0.044137130737304686
0.0457198486328125
0.04721646881103515
0.04861195373535156
0.049889823913574216
0.05103325653076172
0.05202741241455078
0.05286132049560546
0.05352622985839844
0.05401387786865234
0.05431769561767578
0.05443067932128906
0.05434693145751953
0.054059730529785154
0.05355823516845702
0.052832862854003904
0.05187466430664062
0.05067630004882812
0.04923572158813476
0.0475582275390625
0.04565935134887695
0.04356660079956054
0.041312721252441405
0.03892129135131836
0.03640397262573242
0.03376570892333984
0.031018093109130857
0.02819270515441894
0.02533148956298828
0.02247955322265625
0.019675951004028316
0.016939517974853515
0.014309146881103515
0.011852585792541503
0.00959664535522461
0.007491935729980468
0.005397286415100098
0.0031231732368469235
0.0005536779165267944
-0.0022711141109466554
-0.0052734346389770505
-0.008456138610839844
-0.011782026290893555
-0.015117963790893554
-0.018159633636474607
-0.020529586791992186
-0.022095985412597656
-0.023107894897460936
-0.023996124267578123
-0.025039489746093747
-0.026481849670410153
-0.028578561782836912
-0.03168722343444824
-0.03623000717163086
-0.042186714172363284
-0.0489620246887207
-0.05567695617675781
-0.06155140686035156
-0.06585232543945312
-0.06805501556396484
-0.06779942321777344
-0.06463675689697265
-0.058636054992675775
-0.05053635787963867
-0.041268749237060545
-0.03190679931640625
-0.023813663482666014
-0.017008989334106443
-0.009993169784545898
-0.0018802982568740844
0.008771507263183594
0.021815032958984376
0.033372341156005854
0.042110481262207025
0.049612602233886714
0.059523979187011716
0.08147085571289062
0.12370303344726562
0.18860864257812499
0.27633566284179684
0.38005413818359374
0.4874965209960937
0.5863370971679687
0.661611572265625
0.6997091064453125
0.6941134033203125
0.644957763671875
0.5596119384765625
0.4517133483886719
0.3348739318847656
0.21989741516113281
0.11597639465332031
0.02957154083251953
-0.03363063049316406
-0.06889785766601561
-0.07638233184814452
-0.0617414436340332
-0.03617409515380859
-0.012739985466003419
-0.0005568158626556396
-0.0020676729679107667
-0.012196396827697752
-0.022067590713500975
-0.024939504623413086
-0.018437488555908203
-0.005401021003723144
0.00815019702911377
0.018121669769287106
0.023068349838256834
0.02386699676513672
0.02308657073974609
0.02183273124694824
0.020011440277099606
0.01752750015258789
0.014208547592163084
0.010628448486328124
0.007691070556640625
0.00569045639038086
0.00461093521118164
0.004444545269012451
0.005073946475982666
0.006396943092346191
0.008198749542236327
0.009926154136657714
0.011088846206665039
0.011478220939636229
0.011042073249816894
0.009874544143676757
0.008145462036132813
0.006009727478027343
0.003697810649871826
0.001523331880569458
-0.0002931466698646545
-0.0016335861682891845
-0.0024478211402893064
-0.0027627038955688474
-0.002606579303741455
-0.0019977252483367918
-0.0009820380210876464
0.0003892242908477783
0.0020846457481384275
0.0040848636627197265
0.006382534027099609
0.008969017982482909
0.011813102722167967
0.014868907928466795
0.018087366104125976
0.021431903839111328
0.02488463592529297
0.02843500518798828
0.03207823181152343
0.03581615447998047
0.03965499114990234
0.04361124038696289
0.04770769500732421
0.05195537185668945
0.05635612487792969
0.06091178512573242
0.06562132263183593
0.07049128723144531
0.07553599548339843
0.08076077270507813
0.08616526031494141
0.09174796295166016
0.097499755859375
0.10340794372558593
0.10945932006835937
0.11562506103515625
0.12186498260498047
0.1281419677734375
0.13441571044921874
0.140658447265625
0.1468601379394531
0.15300431823730468
0.15907247924804685
0.16504786682128905
0.17090614318847655
0.17663835144042966
0.18225682067871093
0.18776333618164062
0.19315643310546873
0.19844268798828124
0.20362081909179686
0.20871334838867184
0.21376800537109372
0.21881181335449218
0.22386401367187497
0.22892645263671874
0.23396417236328124
0.2389460754394531
0.24385093688964843
0.24864031982421875
0.2532792663574219
0.25771835327148435
0.26186181640625
0.26562841796875003
0.268952880859375
0.2717512817382812
0.2739506225585937
0.27545211791992186
0.27611602783203126
0.27583282470703124
0.2745210266113281
0.2721187744140625
0.26861483764648436
0.26400946044921875
0.25828353881835936
0.251448257446289
0.24352201843261717
0.23452793884277343
0.2245575561523437
0.21370391845703124
0.20204159545898437
0.18967741394042967
0.1767227783203125
0.1633144073486328
0.14964605712890622
0.135903564453125
0.12223149108886718
0.10876116943359374
0.09558518981933593
0.08277330780029296
0.07042637634277343
0.05862634658813476
0.047444869995117184
0.03696486282348632
0.027211416244506834
0.01819296646118164
0.009934314727783203
0.0024321944713592528
-0.0043378152847290035
-0.010418775558471679
-0.015908748626708984
-0.02092736053466797
-0.02555148696899414
-0.029845041275024412
-0.033853996276855466
-0.03759877777099609
-0.04112837982177734
-0.044492588043212884
-0.047731716156005854
-0.0508995361328125
-0.0540253791809082
-0.05712375259399414
-0.06022189331054687
-0.06333799362182617
-0.06646798706054688
-0.06959771728515624
-0.07268023681640624
-0.07564157104492186
-0.07844078063964843
-0.08105429077148438
-0.08346617126464843
-0.08568166351318358
-0.08769535827636718
-0.08949688720703124
-0.09108744049072265
-0.09246795654296874
-0.09364149475097656
-0.09461724090576171
-0.09539902496337889
-0.09598870849609374
-0.09640274047851562
-0.09666456604003905
-0.09680982208251952
-0.09688948059082031
-0.09694020080566405
-0.09698704528808592
-0.09705259704589843
-0.09715006256103514
-0.0972918472290039
-0.09749164581298826
-0.09775469970703124
-0.09808011627197265
-0.0984701919555664
-0.09892739868164062
-0.09945510864257812
-0.10005939483642577
-0.10074069213867187
-0.1014950180053711
-0.10231618499755858
-0.10319408416748047
-0.10411988830566406
-0.10508695220947264
-0.10608804321289061
-0.10711618041992187
-0.10816551208496093
-0.10923019409179686
-0.11030641174316405
-0.11139270019531249
-0.11248574066162108
-0.11358050537109375
-0.11467142486572265
-0.11575172424316406
-0.11681488800048827
-0.11785526275634764
-0.11886664581298827
-0.11984230804443358
-0.12077641296386718
-0.12166383361816406
-0.12250006103515625
-0.12328161621093749
-0.12400534057617187
-0.12466819763183593
-0.125267822265625
-0.12580241394042968
-0.12627049255371092
-0.12667126464843748
-0.1270045013427734
-0.12727032470703126
-0.12746942138671874
-0.12760307312011718
-0.1276729431152344
-0.12768125915527342
-0.12763062286376953
-0.12752386474609373
-0.1273641357421875
-0.12715481567382814
-0.12689937591552733
-0.12660137939453125
-0.12626446533203126
-0.1258921356201172
-0.12548812866210934
-0.1250564727783203
-0.1246012725830078
-0.12412672424316407
-0.1236372375488281
-0.12313723754882812
-0.12263129425048828
-0.12212413787841794
-0.12162014770507812
-0.12112339782714843
-0.12063782501220702
-0.12016688537597656
-0.11971384429931639
-0.11928169250488281
-0.11887305450439452
-0.11849025726318359
-0.11813538360595702
-0.11781030273437498
-0.1175165557861328
-0.11725547790527344
-0.11702801513671875
-0.11683483886718748
-0.11667633056640624
-0.11655265045166015
-0.11646363067626953
-0.11640901184082031
-0.11638825225830078
-0.11640066528320311
-0.11644544982910156
-0.11652169036865233
-0.11662841796875
-0.11676446533203125
-0.11692844390869139
-0.11711879730224609
-0.1173338394165039
-0.11757176971435546
-0.11783058166503906
-0.11810808563232421
-0.11840190124511718
-0.11870954895019531
-0.11902859497070312
-0.11935649871826172
-0.11969065856933593
-0.12002843475341797
-0.12036709594726562
-0.12070385742187499
-0.12103591918945311
-0.12136041259765623
-0.12167432403564452
-0.12197467041015624
-0.12225848388671873
-0.12252281188964843
-0.12276480865478515
-0.12298177337646485
-0.1231709747314453
-0.12332969665527344
-0.12345513916015623
-0.12354457092285157
-0.12359530639648438
-0.12360478210449218
-0.12357044982910155
-0.12348968505859373
-0.12335995483398436
-0.1231790771484375
-0.1229451446533203
-0.12265642547607422
-0.12231138610839842
-0.12190853881835936
-0.12144670104980468
-0.12092515563964844
-0.12034359741210937
-0.11970198059082031
-0.11900057983398436
-0.11824020385742187
-0.11742239379882811
-0.11654910278320312
-0.11562295532226562
-0.11464734649658202
-0.11362639617919922
-0.11256520080566405
-0.11147006225585936
-0.11034768676757811
-0.10920518493652343
-0.10805059814453125
-0.10689248657226562
-0.10573954010009765
-0.1046008071899414
-0.1034852523803711
-0.10240137481689453
-0.1013581085205078
-0.10036479949951171
-0.0994309387207031
-0.09856657409667968
-0.09778221130371093
-0.0970883560180664
-0.09649484252929687
-0.09601103210449219
-0.09564584350585936
-0.0954075698852539
-0.09530305480957031
-0.09533626556396484
-0.0955102310180664
-0.09582789611816406
-0.09629488372802734
-0.09692060852050781
-0.09771223449707031
-0.09867284393310546
-0.09980207824707031
-0.10109663391113281
-0.1025493927001953
-0.10414889526367187
-0.1058762969970703
-0.10770292663574219
-0.10959909057617187
-0.11153623962402343
-0.11348954772949219
-0.1154416732788086
-0.11737384796142576
-0.119262939453125
-0.12107638549804688
-0.12277265930175779
-0.12431371307373046
-0.12567020416259764
-0.12682228088378905
-0.12775194549560545
-0.12844830322265624
-0.12891851806640622
-0.12919706726074218
-0.12935049438476562
-0.12944584655761718
-0.12953471374511719
-0.12965353393554688
-0.12983375549316406
-0.130122802734375
-0.13057608032226561
-0.13124842834472655
-0.13217784118652343
-0.13340682983398439
-0.13499903869628904
-0.1369922180175781
-0.1393754425048828
-0.14202348327636719
-0.14470042419433593
-0.1471359405517578
-0.14905368041992187
-0.15016082763671873
-0.1501209259033203
-0.14862745666503907
-0.14553732299804686
-0.14108177185058593
-0.13572714233398436
-0.12993487548828125
-0.12424603271484375
-0.11915974426269531
-0.1151878204345703
-0.11305811309814452
-0.11253034973144531
-0.11186006927490233
-0.10937596893310546
-0.1033776397705078
-0.09355052185058593
-0.08175788116455077
-0.06844424438476562
-0.05233313751220703
-0.030682437896728518
0.00022598934173583983
0.04365534210205078
0.10161302185058593
0.17499661254882812
0.26564697265625
0.369791748046875
0.4764564819335937
0.5708206787109374
0.6310701904296875
0.6416475219726563
0.6006456298828124
0.5136320190429686
0.3988736877441406
0.27753973388671876
0.16328558349609373
0.06886102294921874
-6.266021728515624e-05
-0.045692237854003906
-0.07027661895751953
-0.08110668945312499
-0.08710843658447265
-0.0913767852783203
-0.09521965026855468
-0.09712844848632812
-0.09318408203124999
-0.08341772460937501
-0.07010072326660155
-0.05579354095458984
-0.04347928619384765
-0.03429967498779297
-0.02806018829345703
-0.02459528350830078
-0.023638378143310546
-0.024842832565307615
-0.027727241516113277
-0.03157605361938476
-0.03583982849121094
-0.040093997955322265
-0.043899555206298825
-0.04695264434814453
-0.04889167022705077
-0.04950435638427734
-0.048905448913574213
-0.04736952972412109
-0.045186988830566405
-0.042728202819824215
-0.04043501663208007
-0.03858669281005859
-0.03742175674438476
-0.037082614898681636
-0.037505970001220704
-0.03857744598388672
-0.04014484405517577
-0.0419461669921875
-0.04366991806030273
-0.045114315032958985
-0.04614453506469726
-0.046690544128417964
-0.046773822784423824
-0.04639337921142578
-0.04554364776611328
-0.04426457977294922
-0.042608146667480466
-0.040613265991210935
-0.03830961608886719
-0.03570727920532226
-0.032802112579345705
-0.02961609077453613
-0.026188585281372072
-0.02256602668762207
-0.018803071975708005
-0.014933122634887693
-0.010972031593322754
-0.006931713104248047
-0.0028154168128967285
0.001375913381576538
0.005644610404968262
0.010005245208740233
0.014476917266845702
0.019070888519287107
0.02379560089111328
0.028656841278076172
0.033659652709960936
0.03881899261474609
0.04414861297607421
0.049654788970947265
0.055342617034912105
0.06121017456054687
0.06724673461914062
0.07343901824951171
0.07976589965820312
0.08619566345214842
0.09269754028320311
0.09924176025390624
0.10579995727539063
0.11235267639160156
0.1188834228515625
0.1253763961791992
0.1318135528564453
0.13817160034179687
0.14443749999999997
0.15061186218261716
0.15670259094238279
0.16272378540039062
0.16869314575195313
0.17462881469726563
0.1805598602294922
0.18653158569335937
0.19258183288574218
0.19873208618164062
0.20498898315429687
0.21133749389648437
0.21774577331542969
0.22417428588867186
0.23058505249023434
0.2369364013671875
0.2431673889160156
0.2492030181884765
0.2549491577148438
0.26029965209960937
0.265159912109375
0.26943447875976556
0.2730074768066406
0.2757433166503906
0.277507568359375
0.27818670654296873
0.27770333862304686
0.27601873779296876
0.27312466430664056
0.26903143310546873
0.26374896240234375
0.25730200195312497
0.2497456359863281
0.24114443969726562
0.23159165954589842
0.2211964416503906
0.21003721618652343
0.19820233154296873
0.18582017517089844
0.17304501342773435
0.16005670166015623
0.1470358428955078
0.1341163330078125
0.1213947296142578
0.10894895935058593
0.0968379669189453
0.08512791442871093
0.07387452697753906
0.06310143661499024
0.052833976745605464
0.04308304595947265
0.03385507583618164
0.025200897216796872
0.01715972900390625
0.009721949577331543
0.002854082107543945
-0.00351740288734436
-0.009488424301147462
-0.015111534118652343
-0.02041444969177246
-0.025427116394042968
-0.030163253784179684
-0.03464401245117187
-0.03888927841186523
-0.042890693664550776
-0.04664471817016601
-0.05015569686889648
-0.05343693923950195
-0.056539867401123045
-0.05951217269897461
-0.062364673614501945
-0.0650936508178711
-0.06766815185546873
-0.07003544616699219
-0.07217222595214842
-0.07406896209716796
-0.07570712280273437
-0.07708296203613281
-0.0781952896118164
-0.07904423522949218
-0.07965292358398438
-0.08004753112792969
-0.08024143218994141
-0.08023998260498047
-0.08003263854980469
-0.07960804748535157
-0.07897398376464843
-0.07814653015136719
-0.07715113067626952
-0.07602432250976562
-0.07479264831542969
-0.07347866821289062
-0.07211170959472656
-0.07071359252929686
-0.06930039978027344
-0.06788614654541016
-0.06647314453124999
-0.0650584716796875
-0.06364605712890624
-0.06224265670776367
-0.06085672760009765
-0.05949848937988281
-0.0581727294921875
-0.056880741119384765
-0.055623565673828125
-0.05439969635009765
-0.05320730590820312
-0.052044044494628905
-0.05090484237670898
-0.04978541946411132
-0.04868382263183593
-0.04759889221191406
-0.04653165817260742
-0.045484825134277346
-0.044459335327148436
-0.043455516815185544
-0.04247416687011718
-0.04151489639282226
-0.0405771369934082
-0.039660591125488275
-0.03876383972167968
-0.03788507080078125
-0.03702333831787109
-0.036178058624267574
-0.03534886169433594
-0.03453588485717773
-0.03373914337158203
-0.032958473205566406
-0.03219401550292968
-0.03144601440429687
-0.03071457862854004
-0.02999981880187988
-0.02930195045471191
-0.028621259689331054
-0.0279582462310791
-0.027313562393188474
-0.026687843322753903
-0.026081739425659178
-0.025495920181274414
-0.024931037902832028
-0.024387733459472653
-0.023866485595703125
-0.023367511749267576
-0.02289085006713867
-0.022436393737792965
-0.022003856658935547
-0.021592971801757812
-0.02120341110229492
-0.020834617614746094
-0.0204860725402832
-0.02015738868713379
-0.019848194122314453
-0.01955832290649414
-0.019287689208984375
-0.019035976409912107
-0.018802785873413084
-0.01858773422241211
-0.01839037322998047
-0.018210323333740234
-0.01804729652404785
-0.017900953292846678
-0.017770936965942383
-0.01765699768066406
-0.017558954238891603
-0.017476709365844726
-0.017410240173339843
-0.01735944557189941
-0.017324115753173826
-0.017304002761840822
-0.01729893112182617
-0.01730884552001953
-0.017333799362182614
-0.01737383460998535
-0.017428993225097656
-0.0174993896484375
-0.017585237503051757
-0.017686882019042966
-0.01780459976196289
-0.017938438415527343
-0.018088300704956053
-0.01825393676757812
-0.018434871673583982
-0.01863045501708984
-0.018839738845825196
-0.019061344146728516
-0.0192936897277832
-0.019535049438476563
-0.01978344345092773
-0.020036808013916014
-0.020292884826660154
-0.02054903793334961
-0.020802274703979492
-0.021049333572387693
-0.021286735534667967
-0.021510883331298827
-0.021718040466308593
-0.021904178619384766
-0.02206502532958984
-0.02219630432128906
-0.022293964385986326
-0.022354179382324216
-0.022373039245605467
-0.02234653091430664
-0.022270605087280272
-0.02214140701293945
-0.021955444335937498
-0.021709442138671875
-0.021400165557861325
-0.021024383544921872
-0.02057935333251953
-0.020063072204589843
-0.0194739990234375
-0.018811195373535157
-0.018074663162231445
-0.01726515579223633
-0.016384708404541017
-0.015436998367309569
-0.014426321983337402
-0.013357469558715819
-0.012236343383789062
-0.011069423675537109
-0.0098633975982666
-0.008625730514526368
-0.0073637948036193845
-0.006084471225738524
-0.004795417785644531
-0.0035048582553863523
-0.0022217371463775634
-0.0009562863707542419
0.0002805400788784027
0.001477664828300476
0.0026244683265686033
0.0037105908393859862
0.004725634574890137
0.005659096717834473
0.006502435207366943
0.0072502784729003905
0.007897473335266112
0.008438649177551268
0.00886422348022461
0.009159614562988281
0.009313897132873533
0.00932075023651123
0.009177275657653809
0.008883959770202636
0.008445196151733399
0.007870462894439698
0.007178903579711913
0.006401394367218018
0.005569740295410156
0.004714871406555175
0.0038623883724212644
0.0030297329425811766
0.0022378869056701657
0.0015116420984268187
0.0008858926296234131
0.000403182566165924
9.559731185436247e-05
-1.5557557344436645e-05
8.205156028270721e-05
0.00039941293001174923
0.0009397647380828858
0.001683816909790039
0.0025801928043365477
0.0035423395633697504
0.004486407279968262
0.005349561214447021
0.006083538532257079
0.0066379566192626945
0.006945125579833984
0.006936168193817138
0.006544246673583985
0.005741014957427978
0.004511331558227539
0.0027976341247558595
0.0005855476856231689
-0.0020801098346710204
-0.0050684742927551265
-0.008111246109008789
-0.010907327651977538
-0.013213716506958007
-0.014757516860961913
-0.015157705307006835
-0.014120025634765623
-0.011489306449890137
-0.007375996589660644
-0.002209935665130615
0.003652356147766113
0.00990344715118408
0.016155462265014648
0.02184991455078125
0.026238956451416013
0.029778642654418944
0.034392929077148436
0.041781303405761715
0.05373419189453125
0.0692776870727539
0.08419371032714842
0.09800064849853515
0.11208227539062499
0.13089781188964844
0.164292724609375
0.2161504364013672
0.2862777709960937
0.37317510986328123
0.4682356567382812
0.562639892578125
0.6476140747070311
0.7096419677734375
0.7371361083984375
0.7248834228515624
0.6727227172851562
0.5886444091796874
0.48776745605468746
0.382867431640625
0.285332763671875
0.20613314819335934
0.14938429260253905
0.11592651367187498
0.10326837158203124
0.10199425506591796
0.10361808776855468
0.10397345733642577
0.10163328552246093
0.0997224884033203
0.10197962951660156
0.10824832153320312
0.11662779235839843
0.12468690490722656
0.13004039001464843
0.13252462768554688
0.13311517333984374
0.13238459777832032
0.13082887268066404
0.12876608276367185
0.1265224914550781
0.12466700744628904
0.1237393798828125
0.12378395843505859
0.12450970458984374
0.1256951217651367
0.12727999114990232
0.12934951782226561
0.13186477661132812
0.1345201721191406
0.13684698486328123
0.13856405639648436
0.13964285278320313
0.14014129638671874
0.14011251831054686
0.13950173950195313
0.1382789764404297
0.13657608032226562
0.13466598510742187
0.13282351684570312
0.13123611450195313
0.12999343872070312
0.12911666870117186
0.12864759826660155
0.1286373596191406
0.1291082763671875
0.13004751586914062
0.13141058349609375
0.13315133666992188
0.1352447509765625
0.13768603515625
0.14047280883789062
0.1435914306640625
0.14700863647460935
0.1506787109375
0.15455372619628907
0.15858782958984374
0.16275274658203126
0.1670337677001953
0.17141914367675778
0.175904052734375
0.18048822021484376
0.18517523193359373
0.18998097229003905
0.19492575073242188
0.20001953125
0.2052687225341797
0.21067700195312497
0.216248046875
0.2219966125488281
0.22793664550781248
0.2340724639892578
0.24040533447265622
0.2469304656982422
0.25363468933105465
0.2605050048828125
0.2675205078125
0.2746441040039062
0.2818401184082031
0.2890726318359375
0.2963067016601562
0.3035261535644531
0.3107164916992187
0.317859375
0.3249365844726563
0.33192657470703124
0.33881695556640623
0.3456157836914062
0.3523365478515625
0.3589840393066406
0.3655687866210937
0.37209985351562497
0.3785960083007812
0.38510656738281246
0.39166784667968746
0.3982993774414062
0.40501043701171874
0.4117764282226562
0.4185611267089844
0.42533258056640627
0.43204937744140626
0.43865447998046875
0.44507519531249995
0.4512068481445312
0.45693093872070306
0.46215585327148434
0.4667902221679687
0.4707447509765625
0.4739249572753906
0.4762005004882812
0.4774613037109375
0.4776322021484375
0.47665768432617184
0.47452111816406245
0.47122726440429685
0.466781005859375
0.4612066650390625
0.45456686401367186
0.4469450073242187
0.4384598693847656
0.4292539672851562
0.4194364013671875
0.40911135864257814
0.39838610839843747
0.3873688049316406
0.3761967468261718
0.3649951171875
0.3538558349609375
0.3428536987304687
0.3320447998046875
0.3214723205566406
0.3111820068359375
0.3012075500488281
0.29154580688476556
0.2821800842285156
0.27307412719726565
0.2641737365722656
0.2554524993896484
0.24689349365234375
0.23847668457031249
0.23018615722656247
0.22199499511718748
0.2138800048828125
0.20583813476562499
0.19787692260742187
0.1900027160644531
0.18222245788574218
0.17453866577148436
0.16695431518554688
0.15949057006835934
0.15217269897460936
0.1450283203125
0.13809010314941406
0.13137596130371093
0.12489517211914061
0.11865666961669921
0.11266375732421874
0.10691699981689452
0.1014146728515625
0.09614590454101563
0.09109330749511718
0.08624356842041016
0.08158493041992188
0.07710646057128906
0.07279872131347656
0.06864697265625
0.06463457489013671
0.06074615859985351
0.05696598434448242
0.053280525207519525
0.04967823791503906
0.046147460937499996
0.042677787780761714
0.03926147460937499
0.035891681671142574
0.03256330108642578
0.02927313995361328
0.02601662254333496
0.022788448333740233
0.019583688735961915
0.016396963119506835
0.013223326683044432
0.010058650016784668
0.006898567676544189
0.0037386255264282224
0.0005754142999649048
-0.0025937943458557125
-0.0057712593078613275
-0.008958619117736814
-0.012157598495483398
-0.015370112419128416
-0.01859790802001953
-0.0218427619934082
-0.025106674194335935
-0.02839175987243652
-0.03170034790039062
-0.0350350341796875
-0.03839850997924805
-0.04179370498657226
-0.04522394180297851
-0.048692840576171875
-0.05220437622070312
-0.05576298522949218
-0.05937343597412109
-0.06304092407226562
-0.06677111053466797
-0.07056985473632812
-0.07444314575195313
-0.07839709472656249
-0.08243774414062499
-0.08657102966308593
-0.09080290222167968
-0.09513918304443358
-0.0995854263305664
-0.10414705657958984
-0.10882920837402343
-0.11363668823242186
-0.11857426452636718
-0.12364640045166016
-0.1288572235107422
-0.13421044921874997
-0.13970924377441404
-0.14535623168945314
-0.15115362548828123
-0.1571030578613281
-0.1632055206298828
-0.16946139526367188
-0.1758703918457031
-0.182431640625
-0.18914370727539062
-0.19600448608398438
-0.20301119995117187
-0.2101603088378906
-0.21744741821289063
-0.2248675079345703
-0.2324149169921875
-0.24008316040039063
-0.247865234375
-0.25575341796875
-0.2637394409179687
-0.27181451416015623
-0.27996948242187497
-0.2881948547363281
-0.2964806213378906
-0.3048162841796875
-0.31319097900390624
-0.3215936279296875
-0.33001290893554686
-0.33843731689453127
-0.34685507202148436
-0.3552542419433593
-0.3636228942871093
-0.3719490051269531
-0.3802208251953125
-0.3884266357421875
-0.39655462646484374
-0.40459301757812494
-0.4125299682617187
-0.42035375976562495
-0.42805282592773436
-0.43561572265625
-0.4430306396484375
-0.4502862243652343
-0.4573713073730469
-0.4642752685546875
-0.4709879760742187
-0.47749957275390625
-0.4838006286621093
-0.48988189697265627
-0.49573489379882807
-0.5013512573242187
-0.5067236938476563
-0.5118450927734375
-0.5167086181640625
-0.521307861328125
-0.5256376953124999
-0.5296931762695312
-0.5334709472656249
-0.536968017578125
-0.5401816406250001
-0.5431101684570313
-0.5457530517578125
-0.5481104736328124
-0.55018359375
-0.5519741210937499
-0.5534838867187499
-0.5547162475585937
-0.5556756591796874
-0.5563676757812499
-0.5567984619140625
-0.5569759521484374
-0.5569085083007812
-0.5566062622070312
-0.55608154296875
-0.5553475341796874
-0.5544178466796875
-0.553306884765625
-0.5520297241210937
-0.5506016235351562
-0.5490388793945312
-0.5473574829101563
-0.545572021484375
-0.543697265625
-0.5417481689453125
-0.5397401733398437
-0.5376903076171874
-0.535615966796875
-0.5335323486328125
-0.5314544677734375
-0.5293971557617188
-0.5273736572265625
-0.525398193359375
-0.5234817504882813
-0.5216287841796874
-0.5198446044921875
-0.5181351318359374
-0.5165089111328125
-0.5149805908203124
-0.5135623779296875
-0.5122581176757812
-0.511070556640625
-0.5100011596679687
-0.5090440673828125
-0.508191650390625
-0.5074272460937499
-0.5067175903320312
-0.5060316772460938
-0.5053408508300781
-0.5046189575195312
-0.503852783203125
-0.5030242309570312
-0.5021033325195313
-0.5010570068359375
-0.4998446044921875
-0.49842803955078124
-0.4967893676757812
-0.4949078979492187
-0.4927542419433593
-0.4903258056640625
-0.4876370849609375
-0.4847290649414062
-0.48168267822265626
-0.4785599670410156
-0.47540084838867186
-0.47225659179687496
-0.4691743774414062
-0.4662071533203125
-0.4634208984375
-0.4608487854003906
-0.4585192260742187
-0.4565029602050781
-0.4548406372070313
-0.4535326232910156
-0.45251477050781247
-0.45156979370117184
-0.450423583984375
-0.448827880859375
-0.4464788818359375
-0.4430300903320312
-0.4381998596191406
-0.43182409667968746
-0.42406085205078126
-0.4154190673828125
-0.40645742797851564
-0.39778948974609374
-0.39005938720703126
-0.3839110107421875
-0.38013928222656246
-0.3785234985351562
-0.37703973388671874
-0.37329257202148436
-0.36476153564453123
-0.3508641052246093
-0.3352289123535156
-0.3206228637695312
-0.30719873046875
-0.29202984619140626
-0.26488095092773434
-0.21576821899414061
-0.14035267639160157
-0.03845680999755859
0.07997591400146484
0.1988390197753906
0.30294018554687496
0.3769443359375
0.41024444580078123
0.39964547729492184
0.346987548828125
0.2588831176757812
0.14715151977539062
0.02614548873901367
-0.09087680816650391
-0.19004461669921874
-0.26147982788085933
-0.3031282958984375
-0.3156658935546875
-0.3058351745605469
-0.28410433959960935
-0.2576627502441406
-0.23428456115722654
-0.21861192321777342
-0.20963429260253905
-0.20540829467773436
-0.20107974243164062
-0.19227418518066405
-0.17907479858398434
-0.16373268127441407
-0.15057254028320313
-0.14296746826171874
-0.14110646057128906
-0.14334197998046874
-0.14706370544433592
-0.15038044738769532
-0.15251318359375
-0.1531820831298828
-0.1522534484863281
-0.14951852416992187
-0.1449143371582031
-0.13872669982910155
-0.1314693908691406
-0.12374410247802732
-0.11616632080078124
-0.10912644958496093
-0.10289196014404296
-0.09762474060058593
-0.09331060791015625
-0.08985718536376953
-0.08707756805419921
-0.0847059097290039
-0.08242405700683593
-0.07997389221191406
-0.07719916534423828
-0.07401454162597655
-0.07041200256347656
-0.06639490509033202
-0.06195872116088867
-0.057115447998046874
-0.051902030944824214
-0.04636021041870117
-0.04051533126831055
-0.034384281158447265
-0.02796694755554199
-0.021266695022583007
-0.01431501293182373
-0.007154634952545165
0.0001624528169631958
0.0075818772315979
0.015069534301757812
0.02260540771484375
0.03017298889160156
0.037762062072753906
0.04536747741699219
0.052986389160156244
0.060626480102539064
0.0683048095703125
0.07603048706054687
0.08380733489990234
0.09163976287841796
0.09953050994873046
0.10749054718017578
0.11553955078125
0.12369212341308594
0.1319547119140625
0.14032887268066405
0.1488100891113281
0.1573883361816406
0.1660506591796875
0.17477430725097653
0.18352569580078124
0.1922708740234375
0.20097665405273438
0.20961561584472654
0.21816935729980466
0.226620361328125
0.23495333862304685
0.24315118408203124
0.2511923522949219
0.25906866455078126
0.2667864990234375
0.2743572998046875
0.28179852294921875
0.28913165283203124
0.29637789916992185
0.3035718383789062
0.3107640380859375
0.3179945373535156
0.325289794921875
0.3326627197265625
0.340105224609375
0.3475979309082031
0.355109619140625
0.3626001586914062
0.37002294921875
0.3773067626953125
0.38435818481445305
0.3910697631835937
0.39732135009765623
0.40299670410156246
0.40798764038085933
0.41217431640624996
0.41542367553710935
0.4176213073730468
0.41867599487304685
0.4185211486816406
0.41712338256835935
0.4144686584472656
0.41056283569335933
0.405431884765625
0.3991211547851562
0.3917086791992187
0.3832995910644531
0.37402230834960937
0.36402490234374996
0.3534470825195312
0.3424179992675781
0.33107623291015625
0.31956872558593746
0.30802929687499997
0.2965762329101562
0.285306396484375
0.27429000854492186
0.2635885925292969
0.25325369262695313
0.24332266235351563
0.23381925964355466
0.22474444580078123
0.21608221435546873
0.20780082702636718
0.19985552978515622
0.19221269226074217
0.18485026550292966
0.177743896484375
0.170869384765625
0.1642090606689453
0.1577510070800781
0.15149594116210938
0.14545811462402344
0.13964871215820313
0.13407704162597656
0.12875497436523436
0.12369575500488281
0.11891998291015624
0.1144525909423828
0.11032085418701172
0.10655361938476562
0.10317034149169922
0.10018115234375
0.09759225463867187
0.09540436553955077
0.09361268615722657
0.09220861053466797
0.09117565155029296
0.0904901351928711
0.09013061523437499
0.09007721710205077
0.09030943298339843
0.09080714416503906
0.09154753112792968
0.0925056915283203
0.09365684509277343
0.09497631072998046
0.0964407272338867
0.0980284423828125
0.09971890258789061
0.10149298095703124
0.10333340454101561
0.10522423553466796
0.10715174102783202
0.10910426330566406
0.1110698776245117
0.11303657531738281
0.11499290466308594
0.11692771911621093
0.11883111572265624
0.1206946563720703
0.12251050567626953
0.12427157592773437
0.12597242736816405
0.12760910034179687
0.129178955078125
0.13068078613281248
0.1321141357421875
0.13347909545898437
0.1347766571044922
0.13600836181640624
0.13717628479003904
0.13828302001953124
0.1393314971923828
0.1403249053955078
0.14126663208007811
0.14216024780273437
0.1430093994140625
0.14381781005859373
0.14458901977539063
0.145326416015625
0.1460328826904297
0.14671086120605467
0.1473625030517578
0.14798951721191406
0.14859315490722655
0.14917417907714842
0.14973284912109375
0.15026898193359373
0.15078202819824219
0.15127105712890626
0.15173464965820313
0.15217103576660154
0.15257781982421875
0.15295223999023436
0.1532910003662109
0.15359033203124997
0.15384605407714844
0.1540536193847656
0.15420819091796875
0.1543047180175781
0.154338134765625
0.15430339050292968
0.1541955871582031
0.1540099182128906
0.1537416534423828
0.15338626098632813
0.15293957519531248
0.15239776611328124
0.1517572326660156
0.1510149230957031
0.15016799926757812
0.1492142639160156
0.1481523895263672
0.14698165893554688
0.14570214843749998
0.14431475830078122
0.1428210754394531
0.14122357177734374
0.13952572631835936
0.13773175048828123
0.13584655761718747
0.13387573242187498
0.13182533264160157
0.12970211791992187
0.12751376342773435
0.1252685394287109
0.12297529602050779
0.12064337158203124
0.11828231811523436
0.11590211486816406
0.11351332092285156
0.11112663269042967
0.10875257873535156
0.10640161895751953
0.10408381652832031
0.10180902862548828
0.09958741760253906
0.09742875671386719
0.09534201049804687
0.09333576202392577
0.09141799926757811
0.08959606933593749
0.0878770751953125
0.0862671661376953
0.08477100372314453
0.08339224243164062
0.08213362121582031
0.08099639129638671
0.0799806442260742
0.07908476257324218
0.07830474090576171
0.07763542175292969
0.07707075500488281
0.07660328674316405
0.07622451782226562
0.07592515563964843
0.07569436645507813
0.07552100372314452
0.07539469146728515
0.07530403137207031
0.07523667144775391
0.07517951965332031
0.07511706542968749
0.07503312683105469
0.07491320037841796
0.07474256896972656
0.07450638580322265
0.07419084167480469
0.07378040313720702
0.07326164245605468
0.07262712097167968
0.0718681182861328
0.07097431182861327
0.06993313598632812
0.06872474670410156
0.06733216857910156
0.0657478256225586
0.06396573638916016
0.061982345581054685
0.05980116653442382
0.0574261245727539
0.054870109558105465
0.05216197204589843
0.04932862091064453
0.046395748138427735
0.04338617706298828
0.04030956268310547
0.037181396484375
0.03402985382080078
0.03088823127746582
0.027801132202148436
0.024808515548706056
0.021927341461181638
0.019174434661865233
0.01657020759582519
0.014113252639770507
0.01178984260559082
0.009558185577392578
0.007338856697082519
0.005066609859466552
0.0026903421878814696
0.00015904760360717772
-0.002568537473678589
-0.005550990104675292
-0.00885500144958496
-0.012518838882446289
-0.016597902297973633
-0.0211577091217041
-0.02620085906982422
-0.03170948600769043
-0.03758533859252929
-0.04358177185058593
-0.04945774459838867
-0.05498924255371093
-0.05986846542358398
-0.06379848480224609
-0.06655628204345704
-0.06796314239501952
-0.06817002105712891
-0.06765879821777343
-0.06684071350097655
-0.066022705078125
-0.06553492736816406
-0.06569928741455078
-0.06686340332031249
-0.06943966674804687
-0.07253417205810547
-0.07380892944335937
-0.07132007598876954
-0.06328012084960938
-0.049805961608886715
-0.0341269416809082
-0.01776438331604004
-0.0003391742706298828
0.019843173980712888
0.049487846374511715
0.09433673858642579
0.15614978027343748
0.23580384826660156
0.3274828796386719
0.4201014709472656
0.5022529602050781
0.5600938720703125
0.5813179931640625
0.5605439453125
0.4983345947265625
0.4003665161132812
0.2793115844726562
0.15063894653320312
0.028283544540405273
-0.07301913452148437
-0.14261866760253908
-0.17853346252441407
-0.18353103637695312
-0.16626483154296873
-0.14052497863769528
-0.11621913909912109
-0.09895796966552733
-0.09189256286621093
-0.09124018859863281
-0.09183089447021484
-0.09140669250488281
-0.08732965850830077
-0.08100733947753906
-0.07688444519042968
-0.07655899047851562
-0.08073143005371093
-0.0882826156616211
-0.09578029632568359
-0.10165414428710937
-0.10573550415039061
-0.10800367736816406
-0.10894884490966796
-0.1086986083984375
-0.10715010070800782
-0.10480349731445311
-0.10254286193847656
-0.10091879272460937
-0.10013905334472656
-0.10021172332763671
-0.10102022552490234
-0.10259346771240234
-0.10499095153808594
-0.10805455017089842
-0.1114360885620117
-0.11483868408203124
-0.1180654067993164
-0.12099188995361328
-0.12359309387207029
-0.12581246185302733
-0.12756597900390623
-0.12882879638671874
-0.12961247253417968
-0.1299376525878906
-0.12983453369140624
-0.1293284454345703
-0.12842033386230467
-0.1271206817626953
-0.12545211791992186
-0.12343345642089844
-0.12110090637207031
-0.11849511718749998
-0.11565444946289062
-0.11262376403808592
-0.10943437957763671
-0.10610279846191405
-0.102641845703125
-0.09905789184570311
-0.09535085296630859
-0.09151934051513672
-0.08755474853515624
-0.08343661499023437
-0.07914862060546875
-0.07467719268798828
-0.07000599670410156
-0.06512693023681641
-0.06003410339355469
-0.05471932220458984
-0.04918006134033203
-0.043421222686767576
-0.03745333099365234
-0.031298725128173825
-0.02498942756652832
-0.01855008316040039
-0.0120023193359375
-0.005366806507110596
0.0013430805206298827
0.00810452938079834
0.014889866828918456
0.021678052902221676
0.028446050643920896
0.035178558349609375
0.04187370300292968
0.04852999114990234
0.055147712707519524
0.06174691772460937
0.06835756683349609
0.07501866149902343
0.0817872314453125
0.08869603729248046
0.09575393676757811
0.10296597290039063
0.11031468963623046
0.11778195190429687
0.12535272216796875
0.13298728942871094
0.14063363647460939
0.14823619079589845
0.15571990966796873
0.16299890136718748
0.1699914855957031
0.176581787109375
0.1826352844238281
0.18802719116210936
0.1926082763671875
0.19625379943847657
0.19887660217285155
0.20038743591308592
0.20072204589843748
0.19983398437499997
0.19767816162109375
0.19424017333984372
0.18953735351562498
0.18358769226074217
0.17643093872070312
0.168138916015625
0.15877487182617187
0.1484377746582031
0.13724870300292968
0.12529618072509766
0.11270054626464843
0.0995876235961914
0.08605776977539062
0.07223031616210937
0.058223289489746095
0.04413711547851563
0.0300854434967041
0.01618436050415039
0.002515374183654785
-0.010839546203613281
-0.02381147766113281
-0.036373046875
-0.04847901916503906
-0.060095497131347646
-0.07119996643066406
-0.08172781372070312
-0.09163999938964844
-0.1009263458251953
-0.10956713104248046
-0.11756297302246092
-0.12493550109863281
-0.13170069885253904
-0.13790277099609374
-0.1436234893798828
-0.14891574096679688
-0.15382360839843748
-0.15838523864746093
-0.16260302734374998
-0.16649777221679687
-0.1701016693115234
-0.17344363403320312
-0.17657907104492188
-0.17955363464355467
-0.1823895111083984
-0.1851138000488281
-0.18774850463867185
-0.1902939147949219
-0.19274722290039062
-0.19508190917968748
-0.1972341613769531
-0.19916307067871092
-0.2008463439941406
-0.20226803588867184
-0.20343632507324216
-0.20435343933105468
-0.2050113830566406
-0.2054091796875
-0.20554479980468748
-0.20541691589355465
-0.20503285217285155
-0.20439739990234373
-0.2035116729736328
-0.20238989257812498
-0.20105316162109374
-0.19953385925292969
-0.19788235473632812
-0.19613775634765626
-0.1943265380859375
-0.19247174072265624
-0.1905870361328125
-0.1886846923828125
-0.18677938842773437
-0.18487867736816405
-0.1829829864501953
-0.18109481811523434
-0.17921730041503905
-0.17735464477539062
-0.1755145111083984
-0.17370007324218747
-0.17191009521484374
-0.17014111328125
-0.16838641357421874
-0.16664080810546872
-0.16490161132812498
-0.16316595458984376
-0.1614313201904297
-0.1596961975097656
-0.15795936584472656
-0.1562218017578125
-0.1544869384765625
-0.15275653076171875
-0.15103057861328126
-0.14930838012695313
-0.14758810424804686
-0.1458681182861328
-0.14414747619628906
-0.14242469787597656
-0.1406976318359375
-0.13896478271484375
-0.13722543334960935
-0.1354794464111328
-0.13372760009765622
-0.13197079467773437
-0.13020977783203122
-0.12844570922851564
-0.12668023681640625
-0.12491529846191406
-0.12315318298339843
-0.12139640045166016
-0.11964751434326171
-0.11790924072265624
-0.11618455505371093
-0.11447657775878906
-0.11278849792480468
-0.11112345886230468
-0.10948442077636718
-0.107874267578125
-0.10629579162597656
-0.1047515411376953
-0.10324395751953125
-0.10177523040771483
-0.10034708404541015
-0.09896124267578124
-0.09761934661865233
-0.09632273864746094
-0.09507266998291014
-0.09387032318115233
-0.09271642303466796
-0.09161146545410155
-0.09055574798583983
-0.08954906463623047
-0.08859071350097655
-0.08767970275878906
-0.08681446075439453
-0.08599288177490233
-0.08521251678466796
-0.08447044372558593
-0.08376327514648438
-0.08308734130859374
-0.08243844604492187
-0.08181182861328123
-0.0812023696899414
-0.08060467529296875
-0.08001329040527343
-0.07942264556884765
-0.07882693481445312
-0.07822010803222657
-0.0775960464477539
-0.07694861602783203
-0.0762719497680664
-0.07556040954589843
-0.07480815887451171
-0.07400929260253905
-0.07315827178955078
-0.07224977874755859
-0.07127904510498047
-0.07024197387695312
-0.06913455200195312
-0.06795296478271483
-0.06669425201416015
-0.06535616302490234
-0.06393719100952149
-0.06243666076660156
-0.06085437774658203
-0.059190422058105464
-0.05744573974609375
-0.055622535705566405
-0.053723777770996094
-0.051753181457519525
-0.04971546936035155
-0.047616268157958976
-0.04546271133422851
-0.04326392745971679
-0.04103012084960937
-0.038771850585937497
-0.03650030136108398
-0.034227241516113276
-0.03196495246887207
-0.029726463317871092
-0.027524200439453122
-0.02536918067932129
-0.02327248382568359
-0.021245407104492187
-0.019300422668457027
-0.017451580047607423
-0.015711599349975586
-0.014091769218444824
-0.012603178024291992
-0.011255889892578124
-0.010060157775878906
-0.009027026176452636
-0.008162909507751465
-0.00746934700012207
-0.0069499220848083494
-0.006608442306518554
-0.006452675819396973
-0.0064976816177368165
-0.006751990318298339
-0.00721678066253662
-0.00789219570159912
-0.008773663520812987
-0.009853623390197753
-0.011123814582824706
-0.0125634708404541
-0.014137681007385253
-0.0158128662109375
-0.01755508995056152
-0.019337804794311523
-0.021146154403686522
-0.02295150566101074
-0.024716821670532223
-0.0263992805480957
-0.02794413375854492
-0.029316013336181636
-0.030497013092041014
-0.031463987350463865
-0.03220088577270508
-0.032710479736328124
-0.03300814056396484
-0.03314156341552734
-0.033190814971923825
-0.03322043228149414
-0.03329014587402343
-0.033462684631347654
-0.033791427612304685
-0.034344131469726556
-0.0351774673461914
-0.03635050201416016
-0.03794308471679687
-0.039979148864746086
-0.04244000244140625
-0.04524925994873047
-0.04821696090698242
-0.05113514709472656
-0.0538307876586914
-0.05605020904541015
-0.05746732330322265
-0.0578583869934082
-0.05705928421020508
-0.05513602447509765
-0.05252520751953124
-0.04960163497924804
-0.04658348083496094
-0.04384915161132812
-0.041846439361572264
-0.04096062088012695
-0.04169813156127929
-0.04327103424072266
-0.04319126892089843
-0.03947424316406249
-0.030344732284545897
-0.016053226470947264
-0.0005002961158752441
0.014415404319763183
0.02902113342285156
0.04576707458496093
0.07352006530761718
0.11974681854248045
