-0.19865179443359374
-0.0541490020751953
0.1936703186035156
0.46650317382812495
0.6519574584960938
0.65813916015625
0.4615167846679687
0.12137469482421874
-0.23698431396484373
-0.47587036132812494
-0.5075448913574219
-0.3223064880371094
0.006406661987304687
0.35280059814453124
0.5962122802734374
0.6563114624023437
0.5197501831054687
0.24399360656738278
-0.07312514495849609
-0.322785400390625
-0.42123181152343747
-0.34133013916015625
-0.11841904449462891
0.16095748901367188
0.38997143554687497
0.48278222656249997
0.40755593872070306
0.19902130126953121
-0.056235912322998044
-0.254843505859375
-0.31892187499999997
-0.22626210021972656
-0.01551111602783203
0.23197654724121092
0.428293212890625
0.5114638366699218
0.46452203369140627
0.31960794067382814
0.13533383178710937
-0.023894954681396484
-0.10813439178466795
-0.10296784973144531
-0.019534740447998047
0.1087317428588867
0.23606704711914062
0.3273778076171875
0.3563587341308594
0.3171290283203125
0.22725260925292967
0.11550321960449218
0.020051347732543943
-0.03069726753234863
-0.028263664245605467
0.016773666381835934
0.07640014648437499
0.1222687530517578
0.13582670593261717
0.11124517059326171
0.05637726211547851
-0.014389545440673827
-0.08586906433105468
-0.14331036376953124
-0.1739863586425781
-0.17139784240722655
-0.13748336791992186
-0.08241612243652344
-0.028416114807128905
-0.0005708692073822021
-0.012305992126464844
-0.06827243041992187
-0.15229660034179687
-0.2315618743896484
-0.28503286743164064
-0.29702056884765626
-0.27036300659179685
-0.23321466064453125
-0.20415893554687498
-0.1973294677734375
-0.21864508056640625
-0.2516674194335937
-0.28408081054687495
-0.30906109619140626
-0.31892636108398437
-0.3173855895996094
-0.3104810180664062
-0.30076440429687495
-0.29530810546874997
-0.29947052001953123
-0.31394665527343746
-0.33784341430664055
-0.36322900390624996
-0.37850610351562497
-0.37258792114257805
-0.3380889587402343
-0.27768655395507813
-0.20285279846191404
-0.13284274291992185
-0.08757723999023437
-0.07852503204345702
-0.10301795959472657
-0.14319737243652342
-0.17453961181640623
-0.17447821044921874
-0.1355557403564453
-0.06733138275146483
0.01265368843078613
0.08414434814453124
0.13664151000976563
0.17112603759765624
0.19282763671874997
0.20888742065429686
0.222601318359375
0.23303472900390623
0.23794992065429685
0.23468792724609372
0.22237596130371093
0.20146661376953123
0.17357012939453123
0.14149192810058592
0.10703678894042967
0.07110441589355468
0.03490153884887695
-0.00032254886627197264
-0.03294877243041992
-0.06088227844238281
-0.08299378967285156
-0.0992084503173828
-0.10940588378906249
-0.11286051177978515
-0.11009698486328125
-0.1036140670776367
-0.09443672180175781
-0.08333924102783202
-0.06908673095703124
-0.046495883941650384
-0.01730421257019043
0.01081736946105957
0.029861381530761715
0.02970314025878906
0.010634840965270996
-0.016870523452758787
-0.0440594253540039
-0.06227783584594727
-0.06992106628417968
-0.07284526062011719
-0.07402896118164061
-0.07574749755859375
-0.07856047058105468
-0.08012826538085936
-0.080541748046875
-0.08079035949707031
-0.08087154388427734
-0.08176992797851562
-0.08325930786132811
-0.08288722991943358
-0.08097097778320313
-0.07943526458740234
-0.08067842864990235
-0.09082058715820313
-0.11131568908691405
-0.1358031311035156
-0.156066162109375
-0.16058940124511717
-0.14224996948242186
-0.1071480484008789
-0.06832855224609374
-0.040723697662353515
-0.03711078643798828
-0.05829742050170898
-0.09203852081298827
-0.12361868286132811
-0.13980883789062498
-0.13319668579101562
-0.11063179016113281
-0.08384608459472656
-0.06121429824829101
-0.04984620285034179
-0.04822643280029297
-0.048806671142578126
-0.04926821899414062
-0.04834040069580078
-0.0441517105102539
-0.039263717651367186
-0.03158863449096679
-0.01571038818359375
0.004452397346496582
0.024770187377929687
0.03926322174072265
0.03611735534667969
0.01687580680847168
-0.009385875701904297
-0.03250946044921875
-0.03439033508300781
-0.0072316360473632805
0.04329573440551758
0.10496467590332031
0.1548603363037109
0.17450732421874998
0.15872998046875
0.11674740600585937
0.07174799346923827
0.04458973693847656
0.047516845703125
0.07717787170410155
0.11573687744140623
0.1490350799560547
0.167607666015625
0.1709066162109375
0.16843301391601562
0.16607028198242185
0.16678204345703124
0.17122570800781248
0.17621788024902343
0.18053038024902343
0.18425627136230469
0.18849620056152344
0.19475979614257813
0.2016557159423828
0.20828875732421873
0.21161141967773436
0.2082123107910156
0.20178692626953124
0.1947635498046875
0.1909375305175781
0.19556251525878904
0.20409648132324218
0.21272640991210937
0.21886837768554687
0.21808573913574217
0.21350717163085936
0.20839117431640625
0.2033800811767578
0.20027120971679688
0.19795834350585936
0.1950133361816406
0.19153265380859374
0.18732217407226562
0.1827354736328125
0.17798966979980468
0.17301632690429686
0.16847837829589843
0.16338363647460935
0.15652783203124998
0.14945391845703124
0.14205279541015622
0.13713606262207031
0.14028927612304684
0.1480522766113281
0.15575785827636718
0.1571237030029297
0.14024719238281247
0.10650128173828123
0.06675452423095703
0.03289523315429687
0.02201470565795898
0.04063754272460937
0.07893032073974608
0.12099288940429687
0.14752651977539064
0.14350668334960937
0.10810087585449218
0.053783500671386715
-0.0007533146142959594
-0.036827537536621095
-0.04214780044555664
-0.018506290435791016
0.019558296203613282
0.05510059356689453
0.07326774597167968
0.06708087158203126
0.04426066207885742
0.017155847549438476
-0.004781677246093749
-0.014318613052368163
-0.013564925193786619
-0.009737792968749999
-0.006158320903778076
-0.005437400817871093
-0.007862056732177734
-0.01028005599975586
-0.012648756980895995
-0.015902147293090817
-0.01849272537231445
-0.020624305725097655
-0.020248933792114256
-0.013451137542724608
-0.002095038652420044
0.012081871032714842
0.02474567985534668
0.026799438476562496
0.015900264739990233
-0.008130620956420897
-0.04157169342041015
-0.07155854034423827
-0.08858131408691405
-0.08524959564208984
-0.05860453033447265
-0.017609256744384766
0.026553373336791992
0.05942470550537109
0.06847560882568358
0.05249670410156249
0.015285250663757322
-0.02910029792785644
-0.06353035736083984
-0.07959102630615233
-0.07272073364257813
-0.05019549179077148
-0.025884254455566403
-0.007584369182586669
-0.0012012014389038085
-0.005444064140319824
-0.013101442337036131
-0.020694894790649412
-0.025909236907958984
-0.02829341125488281
-0.030182708740234373
-0.03227075958251953
-0.03433214950561523
-0.03643659210205078
-0.03818982315063476
-0.03952121353149414
-0.04078644561767578
-0.04211770629882812
-0.04352497100830078
-0.04506649017333984
-0.04676004028320312
-0.048569614410400384
-0.05046872711181641
-0.052423095703125
-0.054372310638427734
-0.05629585266113281
-0.05821041870117187
-0.06011463928222656
-0.0620026741027832
-0.0638763427734375
-0.06573212432861328
-0.06756908416748048
-0.06939185333251953
-0.07119871520996093
-0.0729832992553711
-0.07474179077148436
-0.07647078704833983
-0.07816703796386718
-0.07982842254638671
-0.08145223999023436
-0.08303556823730468
-0.08457588195800782
-0.08607086944580078
-0.08751856994628905
-0.08891690063476562
-0.09026336669921875
-0.09155599975585937
-0.09279303741455078
-0.09397201538085938
-0.09509088134765624
-0.09614646911621093
-0.09713313293457031
-0.09804959106445311
-0.09889902496337889
-0.09968323516845702
-0.10040476989746093
-0.10106327819824218
-0.10164806365966796
-0.10215419769287108
-0.1025905303955078
-0.10294659423828124
-0.10319808197021484
-0.10332691955566406
-0.10330497741699217
-0.10313333129882812
-0.10287234497070312
-0.10256295776367186
-0.1021969757080078
-0.1018212890625
-0.10151211547851562
-0.10131282806396484
-0.10129764556884764
-0.10145336151123047
-0.10158447265625
-0.10153919219970703
-0.10134709167480468
-0.10085911560058594
-0.09970524597167968
-0.09791619873046874
-0.09567498779296875
-0.09306185913085938
-0.09095189666748046
-0.08884959411621093
-0.08415075683593749
-0.07731231689453123
-0.07041889953613281
-0.06801499938964843
-0.07937135314941406
-0.10498110961914062
-0.13606687927246092
-0.15978178405761717
-0.1578685607910156
-0.12462310028076172
-0.07174451446533202
-0.01804313278198242
0.013611894607543943
0.009285972595214843
-0.027177719116210936
-0.08151744079589844
-0.1362870635986328
-0.17285919189453125
-0.18169544982910157
-0.16453556823730467
-0.1264335403442383
-0.08265463256835937
-0.049845699310302735
-0.03540141296386719
-0.04383375549316406
-0.06790675354003907
-0.09379115295410155
-0.11394628143310546
-0.12267201995849608
-0.12120787048339843
-0.11657948303222655
-0.11214030456542969
-0.11002666473388671
-0.1106095962524414
-0.11164477539062499
-0.11246900939941405
-0.1132976608276367
-0.11406613159179686
-0.11513871002197265
-0.11655883789062499
-0.11796519470214843
-0.1192026901245117
-0.12023365783691405
-0.12098509979248047
-0.12143255615234373
-0.12161469268798827
-0.12155686950683593
-0.12129150390624999
-0.12090605163574218
-0.12045619201660156
-0.11996295166015623
-0.11947772216796874
-0.11899998474121093
-0.118478515625
-0.11791363525390625
-0.11730519104003906
-0.11661462402343749
-0.11585758209228515
-0.11500949096679686
-0.1139686279296875
-0.11276671600341795
-0.11151787567138671
-0.11022702026367187
-0.10888526916503904
-0.10758969116210937
-0.1063310317993164
-0.10492070007324218
-0.10343051147460937
-0.1017879638671875
-0.099308349609375
-0.09694780731201172
-0.09579988861083984
-0.09448500061035156
-0.09303803253173827
-0.088249755859375
-0.07497867584228515
-0.0572116584777832
-0.039235488891601555
-0.027890834808349606
-0.03416073608398437
-0.05346461105346679
-0.07618954467773438
-0.09369468688964844
-0.09309494018554687
-0.07695734405517578
-0.05658311080932617
-0.039099086761474604
-0.03342891311645507
-0.03964147186279297
-0.050076305389404295
-0.06113479995727539
-0.06989917755126954
-0.07561106872558594
-0.08108773040771483
-0.08738063812255858
-0.09410555267333984
-0.10086390686035156
-0.10710502624511718
-0.11280593872070312
-0.11817240905761718
-0.1238757858276367
-0.12941944885253906
-0.1322207336425781
-0.132622802734375
-0.133102783203125
-0.13731246948242187
-0.15344287109375
-0.18309176635742186
-0.21777084350585937
-0.24739825439453123
-0.25754217529296874
-0.24115455627441404
-0.20868624877929687
-0.17391339111328122
-0.15137094116210936
-0.15114991760253907
-0.1663362121582031
-0.18499382019042968
-0.19847966003417966
-0.19936721801757812
-0.18973097229003905
-0.1766473236083984
-0.16267198181152343
-0.14978411865234376
-0.1378642578125
-0.12325513458251953
-0.10429069519042967
-0.08048042297363281
-0.05065302658081054
-0.014985866546630859
0.025345245361328123
0.0697850112915039
0.11753147888183593
0.16668865966796875
0.21515637207031246
0.26045617675781246
0.2991771240234375
0.3283709106445312
0.3463793334960937
0.35157220458984373
0.34248736572265626
0.3190781555175781
0.2823672485351562
0.23437973022460937
0.1786323547363281
0.11912596893310545
0.059229759216308596
0.00261747932434082
-0.046733879089355466
-0.08623191833496094
-0.11457217407226562
-0.1314739532470703
-0.1381710968017578
-0.13670477294921873
-0.1289898681640625
-0.11756192016601562
-0.10558451843261718
-0.09524102020263671
-0.08783705139160156
-0.08411752319335937
-0.08384107971191405
-0.0863397216796875
-0.0910537643432617
-0.09697427368164062
-0.1026898956298828
-0.1073837432861328
-0.11068212890625
-0.11243280029296875
-0.11296336364746093
-0.11267445373535157
-0.11182301330566405
-0.1108578643798828
-0.11032495117187499
-0.11048499298095703
-0.11144613647460937
-0.11320640563964843
-0.11556849670410156
-0.11837080383300781
-0.12151046752929687
-0.12480546569824216
-0.1280730438232422
-0.13118429565429687
-0.13400997924804686
-0.13648175048828123
-0.13858383178710937
-0.14026852416992186
-0.141498291015625
-0.14225749206542967
-0.14252943420410155
-0.1423233184814453
-0.14166809082031248
-0.14058428955078123
-0.13910189819335939
-0.13726324462890624
-0.1351049346923828
-0.13267451477050782
-0.13002284240722656
-0.12719721221923827
-0.12425306701660155
-0.12123388671874999
-0.11816970062255858
-0.11508893585205078
-0.1120114974975586
-0.10895079803466796
-0.10591935729980467
-0.1029203872680664
-0.09994725036621092
-0.09699687194824218
-0.0940656280517578
-0.09114749145507811
-0.08823976135253905
-0.08533604431152343
-0.08242632293701171
-0.07950041198730469
-0.07654615020751952
-0.0735521469116211
-0.07050968933105468
-0.06741073608398436
-0.06424711608886718
-0.06101178741455078
-0.0576981201171875
-0.054301208496093746
-0.05081858825683593
-0.04724636840820312
-0.04357933807373047
-0.03981240081787109
-0.035940513610839844
-0.0319599609375
-0.027868717193603513
-0.023665294647216797
-0.019348876953124997
-0.014920825004577636
-0.010384542465209961
-0.005745263576507568
-0.0010101090669631958
0.0038126516342163086
0.008713610649108887
0.013681868553161619
0.018704978942871094
0.023769031524658202
0.028858684539794923
0.03395727157592773
0.03904702758789062
0.0441091079711914
0.0491236228942871
0.054069702148437496
0.0589258804321289
0.0636704330444336
0.06828167724609376
0.07273825073242186
0.07701886749267578
0.08110255432128906
0.08496882629394531
0.08859796142578125
0.09197111511230469
0.09507044219970702
0.0978790283203125
0.10038125610351561
0.1025630874633789
0.10441221618652344
0.10591818237304686
0.10707247924804686
0.10786854553222656
0.1083020553588867
0.10837101745605468
0.1080756378173828
0.10741830444335936
0.10640360260009764
0.10503814697265625
0.103330810546875
0.10129259490966795
0.09893657684326172
0.09627775573730468
0.09333308410644531
0.09012120819091797
0.08666242218017578
0.08297850036621093
0.07909243774414063
0.07502819824218748
0.07081050872802734
0.06646461486816405
0.062016162872314456
0.05749106216430663
0.052915199279785156
0.04831427001953125
0.04371364212036132
0.03913812255859375
0.034612087249755855
0.030159492492675778
0.025803024291992185
0.02156380462646484
0.017462100982666016
0.013516798973083494
0.00974571418762207
0.006166480541229247
0.0027924475669860835
-0.00036812812089920044
-0.0033075132369995114
-0.006018876552581787
-0.008496938705444334
-0.010734777450561521
-0.01272963523864746
-0.01448794937133789
-0.016004634857177735
-0.01726090621948242
-0.0182462043762207
-0.018954446792602535
-0.019389743804931636
-0.019580245971679684
-0.019549285888671875
-0.01929635620117187
-0.01886806106567383
-0.018366292953491212
-0.017859060287475585
-0.017388248443603517
-0.01697644805908203
-0.016584081649780272
-0.016169126510620115
-0.015769412994384766
-0.015265090942382813
-0.014266941070556639
-0.012688963890075683
-0.0107490758895874
-0.008440107345581056
-0.006013322830200195
-0.003005974769592285
0.00236848783493042
0.0097601900100708
0.017211780548095704
0.021605701446533204
0.01726589584350586
0.0033113694190979003
-0.016226852416992187
-0.03485524368286133
-0.04207406997680664
-0.033319854736328126
-0.010620862007141112
0.019155656814575192
0.04315123748779297
0.053506206512451165
0.04758105087280273
0.028883890151977537
0.00820905303955078
-0.007091053962707519
-0.012675293922424315
-0.008748901367187499
-0.0014059064388275146
0.005281008720397949
0.008933829307556151
0.009132243156433106
0.008024873733520508
0.006625715255737304
0.0056419591903686525
0.00433080768585205
0.0012787370681762694
-0.002101333141326904
-0.005295540809631348
-0.004761279106140136
0.004818600654602051
0.02073957824707031
0.03930433654785156
0.05200115966796875
0.04668156814575195
0.02426966094970703
-0.008138090133666991
-0.0376253662109375
-0.04806721496582031
-0.03668060684204101
-0.010279781341552732
0.01873249053955078
0.03732939910888671
0.04149440765380859
0.034773345947265624
0.024530696868896484
0.01678580856323242
0.01345860767364502
0.01359331703186035
0.014740943908691405
0.01572586441040039
0.016637500762939454
0.017644161224365233
0.019030632019042967
0.020716543197631835
0.022346431732177735
0.023817794799804684
0.025142143249511716
0.026270553588867183
0.0272038516998291
0.027969358444213863
0.028597194671630858
0.029150165557861325
0.02967727279663086
0.030176120758056636
0.030620819091796873
0.03100297737121582
0.031321388244628906
0.03157345962524414
0.031757392883300775
0.03186549758911133
0.03189051818847656
0.031832828521728515
0.031696918487548825
0.03148612213134765
0.03120267677307129
0.030848684310913085
0.030426219940185545
0.029938415527343748
0.029389247894287106
0.02878274345397949
0.028123012542724608
0.027414344787597654
0.02666107940673828
0.025867658615112303
0.02503853034973144
0.024178047180175778
0.02329048538208008
0.022380023956298827
0.021450714111328123
0.020506420135498048
0.019550785064697266
0.018587175369262694
0.017618659973144532
0.016648155212402344
0.015678502082824706
0.014712366104125974
0.013752226829528808
0.01280034065246582
0.011858682632446289
0.01092905044555664
0.010013091087341308
0.009112116813659667
0.008226962089538574
0.007358044147491455
0.006505434036254882
0.005669052124023437
0.004848737716674804
0.0040441608428955075
0.0032547879219055175
0.002479918003082275
0.001718897223472595
0.0009713155031204223
0.00023696137964725493
-0.0004842744767665863
-0.0011922580003738401
-0.0018866169452667234
-0.0025666298866271974
-0.0032308673858642578
-0.0038773965835571284
-0.00450401782989502
-0.005108180522918701
-0.005686988830566406
-0.006237268924713135
-0.0067553377151489255
-0.007236969947814941
-0.007677923202514649
-0.0080740327835083
-0.008420965194702148
-0.00871428871154785
-0.00894941234588623
-0.009121490478515624
-0.009225898742675782
-0.009258428573608398
-0.009214719772338866
-0.00909012508392334
-0.008879947662353515
-0.008579599380493163
-0.008185168266296386
-0.007693439483642577
-0.007101452350616455
-0.006406527042388916
-0.0056063723564147945
-0.004699429988861084
-0.003685439586639404
-0.0025650794506073
-0.0013394831418991086
-1.1129021644592285e-05
0.0014162034988403319
0.0029373936653137203
0.004544941902160644
0.006230101108551025
0.007983906269073486
0.009796209335327148
0.01165559959411621
0.013550657272338866
0.015469072341918945
0.01739799880981445
0.01932592010498047
0.02124052810668945
0.02312763214111328
0.02497233200073242
0.026758895874023438
0.028471176147460933
0.030094345092773436
0.03161396980285645
0.033013671875
0.034276252746582025
0.03538460540771484
0.036324127197265625
0.0370842399597168
0.03765296554565429
0.0380155029296875
0.03815330505371094
0.03804582214355468
0.037681434631347654
0.037058521270751946
0.03617888641357422
0.03504566955566406
0.03366613006591797
0.03205301284790039
0.030231340408325192
0.028240512847900388
0.026118228912353516
0.023896408081054685
0.021600486755371094
0.019253318786621093
0.01688980293273926
0.014555811882019041
0.012306690216064451
0.010192789077758788
0.008236966133117675
0.006444985866546631
0.004820598125457764
0.0033653120994567866
0.0020725901126861573
0.0009136748909950255
-0.00018208122253417968
-0.0013059456348419188
-0.0025249180793762206
-0.0038859336376190186
-0.00542010498046875
-0.007162925243377685
-0.009185279846191406
-0.011565466880798339
-0.014371702194213866
-0.017642610549926756
-0.021356157302856442
-0.02546002960205078
-0.02990473747253418
-0.03462544250488281
-0.03953743362426757
-0.04451829147338867
-0.04935273742675781
-0.053788539886474605
-0.05762376403808593
-0.060666374206542965
-0.06272610473632813
-0.06360931396484373
-0.06300862884521484
-0.060563335418701174
-0.0560574722290039
-0.04942271423339843
-0.04075482940673828
-0.030331533432006834
-0.018389879226684572
-0.005049174308776855
0.00942359161376953
0.02461484146118164
0.040344081878662105
0.05666808319091796
0.07404713439941406
0.09342518615722656
0.11549617767333983
0.1404491729736328
0.1684300842285156
0.1994786376953125
0.2329242248535156
0.26757617187499994
0.30147912597656246
0.33169012451171875
0.35563360595703125
0.3713822021484375
0.3769825439453125
0.37093661499023434
0.35298944091796874
0.32378146362304683
0.28518637084960935
0.24056646728515624
0.19309225463867186
0.14566134643554685
0.10165386962890625
0.06398075866699218
0.03441609191894531
0.013923844337463378
0.002189823150634765
-0.002479948043823242
-0.0017270793914794921
0.002723626136779785
0.00851937961578369
0.013718481063842772
0.017023902893066406
0.017499092102050782
0.015044407844543457
0.010292581558227537
0.0038213062286376947
-0.003605072736740112
-0.010891168594360352
-0.01735325813293457
-0.022615882873535158
-0.026399982452392577
-0.028807514190673827
-0.030109954833984372
-0.03053336143493652
-0.030490081787109373
-0.03047892951965332
-0.030756467819213863
-0.031450813293457024
-0.03260480880737305
-0.03411973190307617
-0.03593074417114258
-0.037993469238281244
-0.040169624328613276
-0.0423014907836914
-0.04425551605224609
-0.04591288757324219
-0.047231784820556635
-0.04821660614013671
-0.04884970092773437
-0.0491136245727539
-0.04899021911621094
-0.048452533721923825
-0.04749831390380859
-0.04614322662353515
-0.04439214324951172
-0.042267005920410154
-0.03981194305419921
-0.03704984283447266
-0.033996952056884765
-0.030730422973632807
-0.027373489379882814
-0.024039352416992187
-0.020828054428100585
-0.01777341079711914
-0.01481692886352539
-0.011960628509521483
-0.009321285247802734
-0.006814670085906982
-0.004105009078979492
-0.0011258498430252073
0.0020285007953643797
0.005403731822967529
0.008615711212158202
0.012394784927368164
0.01886261749267578
0.02747945213317871
0.03635537338256836
0.04220227813720703
0.03895060348510742
0.0272193431854248
0.013021081924438476
0.0024530320167541505
0.004183746337890625
0.018426597595214842
0.037069149017333984
0.05391262054443359
0.06219832611083984
0.06106873321533203
0.05665777206420898
0.05261553955078124
0.051447044372558585
0.053798946380615234
0.05728517150878906
0.06074714660644531
0.0639213409423828
0.06667339324951171
0.06947727966308592
0.07236288452148437
0.07536761474609374
0.07767745971679686
0.07727228546142578
0.07467230987548827
0.07171855163574217
0.07162895965576171
0.08032186889648438
0.09720821380615234
0.11645790863037109
0.1321328125
0.13576885986328124
0.12714395141601562
0.11413702392578125
0.10280669403076172
0.09980509948730468
0.10600741577148437
0.11546566772460937
0.12460929870605468
0.13090016174316407
0.13367463684082032
0.13534051513671874
0.13691720581054687
0.13832147216796872
0.13961148071289062
0.14040199279785157
0.14060472106933591
0.14053204345703124
0.1402640686035156
0.13973721313476561
0.13895388793945312
0.1379227600097656
0.13662744140625
0.13505216979980467
0.1331660919189453
0.13091493225097653
0.1282866973876953
0.1253125
0.12200680541992187
0.11837541198730468
0.11442999267578124
0.11018034362792968
0.10564231109619139
0.10083943176269532
0.09579086303710936
0.09051199340820312
0.08502159118652344
0.07934014892578124
0.0734892578125
0.06749223327636719
0.061372310638427734
0.055152667999267574
0.048856952667236324
0.04250911712646484
0.036133171081542965
0.02975310134887695
0.02339272689819336
0.017075496673583983
0.010824262619018555
0.004661067008972167
-0.0013930258750915526
-0.007318132400512695
-0.013095627784729003
-0.01870819091796875
-0.024139867782592774
-0.029376110076904296
-0.0344037971496582
-0.039211273193359375
-0.04378834533691406
-0.048126308441162106
-0.0522179946899414
-0.056057891845703124
-0.05964214324951171
-0.06296865081787109
-0.06603692626953125
-0.06884811401367187
-0.07140486145019531
-0.07371122741699218
-0.07577258300781249
-0.07759545898437499
-0.07918746185302734
-0.08055709838867187
-0.08171381378173828
-0.08266788482666015
-0.08343040466308593
-0.08401322174072265
-0.08442882537841796
-0.08469020843505859
-0.08481075286865235
-0.08480406951904297
-0.08468382263183592
-0.08446357727050781
-0.08415660095214843
-0.08377579498291016
-0.08333355712890625
-0.08284187316894531
-0.08231221008300782
-0.08175558471679688
-0.08118249511718749
-0.08060293579101563
-0.0800263214111328
-0.07946145629882813
-0.07891645812988281
-0.07839865112304686
-0.07791453552246093
-0.07746966552734375
-0.07706874084472656
-0.07671565246582031
-0.07641358947753905
-0.07616510772705078
-0.07597219085693359
-0.0758363037109375
-0.07575843811035156
-0.07573912811279297
-0.0757785415649414
-0.07587639617919922
-0.07603196716308594
-0.0762441635131836
-0.07651142883300781
-0.07683190917968749
-0.07720368957519531
-0.07762488555908202
-0.07809359741210936
-0.07860811614990233
-0.07916664123535155
-0.07976744079589844
-0.0804092559814453
-0.08109125518798828
-0.0818128662109375
-0.08257389068603514
-0.08337403106689453
-0.084212890625
-0.08509049987792969
-0.08600692749023436
-0.08696241760253905
-0.08795732116699218
-0.08899131774902344
-0.09006365203857421
-0.09117390441894531
-0.09232162475585938
-0.09350785064697266
-0.09473519134521484
-0.09600428771972655
-0.09731491088867188
-0.0986656036376953
-0.10005208587646484
-0.10147422790527343
-0.10293528747558593
-0.10443405151367187
-0.10596806335449219
-0.10753475189208984
-0.10912751770019531
-0.1107511291503906
-0.11242327880859374
-0.11414169311523437
-0.11589002990722656
-0.11765347290039062
-0.1194086685180664
-0.1211543731689453
-0.12292073822021482
-0.12470629882812498
-0.12647743988037108
-0.12825543212890625
-0.13010014343261717
-0.13206289672851562
-0.1342046661376953
-0.13652334594726562
-0.13891998291015625
-0.14135403442382813
-0.14388668823242187
-0.14637486267089841
-0.14844750976562499
-0.1500375518798828
-0.15123683166503907
-0.15198837280273436
-0.15267495727539063
-0.15249166870117187
-0.1492900695800781
-0.14369378662109375
-0.13755686950683593
-0.13419869995117187
-0.1396333465576172
-0.15297550964355466
-0.16826809692382813
-0.17953907775878905
-0.17839047241210934
-0.16506007385253904
-0.14762704467773435
-0.13217660522460936
-0.12527772521972655
-0.1274962921142578
-0.13289297485351562
-0.13784779357910154
-0.139650634765625
-0.13779742431640624
-0.13477310180664062
-0.13198171997070313
-0.13046060180664062
-0.13118731689453123
-0.1342403564453125
-0.1399266662597656
-0.14754815673828123
-0.15435842895507812
-0.15778521728515624
-0.15665533447265623
-0.15302931213378906
-0.154131103515625
-0.16800442504882812
-0.1947236328125
-0.22343594360351562
-0.23254095458984372
-0.1950343780517578
-0.10000245666503906
0.038891155242919924
0.18471530151367185
0.2807980041503906
0.2827192077636718
0.17625799560546873
-0.016522018432617188
-0.2338905334472656
-0.407048828125
-0.4825711669921875
-0.4392813110351562
-0.30330554199218746
-0.12555194854736326
0.03454561614990234
0.12732247924804688
0.13758053588867186
0.07589649200439452
-0.02658443260192871
-0.1262433776855469
-0.19107171630859374
-0.2028878479003906
-0.16014144897460936
-0.08203604125976562
0.0038410568237304686
0.06876418304443359
0.08977639007568358
0.05982615661621093
-0.010038906097412108
-0.09473460388183594
-0.16289758300781249
-0.18783847045898436
-0.15842353820800778
-0.084010986328125
0.008405683517456054
0.0838824234008789
0.11323736572265625
0.08509561157226561
0.011579389572143554
-0.07597137451171875
-0.1418755187988281
-0.161286865234375
-0.1293328399658203
-0.06557636260986327
-0.0006389369964599609
0.04159049224853515
0.04857019424438476
0.02748588943481445
-0.0020499000549316407
-0.026278690338134764
-0.036514030456542966
-0.03342121124267578
-0.026244750976562498
-0.01981511306762695
-0.0162687931060791
-0.016043254852294922
-0.016272918701171875
-0.015953125
-0.015614003181457519
-0.015290591239929197
-0.015365406036376952
-0.01601248741149902
-0.016903150558471677
-0.017862342834472657
-0.018859920501708982
-0.019759439468383787
-0.02042340087890625
-0.02083844184875488
-0.021049537658691404
-0.021097370147705078
-0.021053825378417965
-0.020975942611694335
-0.020875682830810545
-0.02083314514160156
-0.020991201400756835
-0.021445398330688478
-0.022268249511718748
-0.023507850646972653
-0.025164861679077145
-0.027283016204833983
-0.029944467544555663
-0.033217041015625
-0.03716435241699219
-0.041794406890869135
-0.04704271697998046
-0.052841781616210934
-0.0591154556274414
-0.06574000549316406
-0.07257550811767577
-0.07940789794921875
-0.08593397521972655
-0.0919030303955078
-0.09710353851318358
-0.10134164428710937
-0.10446021270751953
-0.10622541809082031
-0.10634821319580078
-0.10452986907958985
-0.10046742248535155
-0.09402557373046874
-0.08524090576171875
-0.0742484893798828
-0.06131929779052735
-0.046739437103271476
-0.03071295166015625
-0.013645272254943847
0.0038700561523437494
0.021605237960815427
0.039632568359374995
0.058421752929687494
0.07889258575439452
0.10149471282958984
0.12615746307373046
0.15289706420898436
0.181726806640625
0.21221600341796876
0.24344351196289063
0.2734876403808594
0.2995447692871094
0.3194915161132812
0.3318250122070312
0.33514193725585933
0.3283180541992188
0.3105996398925781
0.2820946350097656
0.24448275756835935
0.20066020202636717
0.15338009643554684
0.10526976776123045
0.059063358306884764
0.01751032257080078
-0.016745668411254883
-0.042039131164550776
-0.05814551544189453
-0.06590951538085937
-0.06655860137939454
-0.061503604888916014
-0.052476364135742186
-0.04165768432617187
-0.0312324104309082
-0.022651411056518553
-0.016569427490234375
-0.012979468345642089
-0.011526035308837891
-0.011849761962890625
-0.013367292404174804
-0.015106131553649902
-0.016216951370239256
-0.01624022102355957
-0.015042119979858397
-0.012892342567443846
-0.010136850357055664
-0.006951643466949462
-0.0036169235706329343
-0.0005170155763626099
0.0020749282836914065
0.003929808139801026
0.004994756698608399
0.005522723197937012
0.005593228340148925
0.004980527877807618
0.003756329298019409
0.0021725902557373044
0.00030135262012481685
-0.0013829647302627563
-0.0034037661552429196
-0.007844332695007325
-0.01433498191833496
-0.020856796264648435
-0.02431085968017578
-0.018670402526855468
-0.003953102827072143
0.013701005935668944
0.028296588897705078
0.03129527473449707
0.021634407043457028
0.007420933723449707
-0.005064076423645019
-0.009184540748596192
-0.0034304990768432614
0.006091789245605468
0.015505441665649414
0.022312042236328124
0.025573905944824216
0.027736797332763668
0.03000197982788086
0.032255950927734374
0.034602489471435544
0.03669377899169922
0.03842314147949218
0.04013715744018555
0.04195420837402344
0.04381725692749023
0.04574266052246093
0.0477610855102539
0.04987511825561523
0.05208848190307617
0.05438745880126953
0.056727558135986324
0.05910378265380859
0.061557060241699206
0.06410774230957031
0.06676252746582031
0.06952668762207032
0.07239646911621093
0.07537791442871095
0.0784867706298828
0.08173660278320312
0.0851407241821289
0.0887056427001953
0.09243139648437498
0.09631912231445312
0.10036372375488281
0.10455009460449219
0.10885543060302734
0.11323980712890624
0.11765648651123045
0.12207507324218748
0.12647239685058592
0.13083721923828126
0.13517736816406248
0.13949049377441405
0.14377218627929686
0.14802552795410157
0.15223739624023436
0.15639909362792967
0.16051712036132812
0.16457891845703124
0.16856547546386716
0.17249850463867186
0.1764239807128906
0.18040818786621093
0.18454493713378906
0.1888759765625
0.19336834716796875
0.19798579406738281
0.20269386291503905
0.20738867187499999
0.21191781616210936
0.21614569091796876
0.21992018127441404
0.2231235656738281
0.22579803466796872
0.22799102783203123
0.22961083984374997
0.23076525878906248
0.23177328491210936
0.23250619506835934
0.23268060302734375
0.23235855102539063
0.23095918273925778
0.22891860961914062
0.22855812072753903
0.22938075256347654
0.22926161193847655
0.22502398681640623
0.2094063262939453
0.1811841583251953
0.14772950744628904
0.11800747680664062
0.10484127807617186
0.11435931396484374
0.13724659729003907
0.16048428344726562
0.17065008544921875
0.1587086181640625
0.13059927368164062
0.09768242645263671
0.06893743133544922
0.05188587188720702
0.04556892395019531
0.04433358001708984
0.04371212768554687
0.037952613830566403
0.025968509674072264
0.011745921134948729
0.0026063714027404782
0.009878394126892088
0.03735990142822265
0.07796562957763671
0.11363020324707031
0.11894217681884765
0.08059873199462891
0.003311489105224609
-0.08824417114257813
-0.15701582336425782
-0.17807789611816405
-0.14558142089843748
-0.0765556869506836
-0.0044081897735595696
0.04400424194335937
0.05564954376220703
0.03390101242065429
-0.003389132261276245
-0.03816470336914062
-0.059888153076171874
-0.06569407653808594
-0.060556129455566404
-0.052581760406494135
-0.04629887390136719
-0.04291549682617188
-0.0418119888305664
-0.04070850372314453
-0.03852343749999999
-0.03640766143798828
-0.03419548797607421
-0.02994211769104004
-0.024350944519042968
-0.018615564346313476
-0.01638070297241211
-0.026514728546142577
-0.04940605163574218
-0.07695867919921874
-0.09741600036621093
-0.09222270202636719
-0.055023296356201165
0.0013917903900146484
0.05622239685058593
0.0824675064086914
0.0632970085144043
0.005862735748291015
-0.06733546447753906
-0.12676639556884764
-0.14644827270507813
-0.11877319335937499
-0.05587294769287109
0.018625759124755857
0.07644366455078125
0.09590515899658203
0.07151712036132812
0.01314633560180664
-0.05732983016967773
-0.11319622039794922
-0.1344066925048828
-0.1149879913330078
-0.06419234466552734
-0.003295734405517578
0.042971603393554686
0.05944181060791015
0.043630920410156246
0.0055823326110839835
-0.0343318862915039
-0.0616364288330078
-0.06966519165039062
-0.05889689636230468
-0.041477706909179686
-0.02600724983215332
-0.01638782501220703
-0.015350119590759275
-0.017785688400268555
-0.020081005096435543
-0.021864604949951173
-0.02163944053649902
-0.020715417861938475
-0.020294832229614253
-0.01979012680053711
-0.019246414184570314
-0.01854549407958984
-0.017360626220703123
-0.01585770225524902
-0.014217370033264159
-0.012443123817443847
-0.010594068527221678
-0.008744756698608398
-0.006902852058410644
-0.005050349712371826
-0.00319010591506958
-0.0013089239597320556
0.0006161125302314758
0.0025657224655151363
0.0045248670578002925
0.006494952201843261
0.008464805603027344
0.010422121047973631
0.012358997344970701
0.014263177871704101
0.01612275123596191
0.017931764602661132
0.019682935714721676
0.02136686325073242
0.022975074768066404
0.024498292922973633
0.025927190780639646
0.027253301620483394
0.028468227386474608
0.02956387710571289
0.03053276062011719
0.03136791229248046
0.032063003540039055
0.0326124267578125
0.03301128768920898
0.033255622863769534
0.03334255599975586
0.033270164489746096
0.03303756713867187
0.03264498901367187
0.0320936279296875
0.03138576889038086
0.03052491188049316
0.02951554489135742
0.028362960815429685
0.027073198318481446
0.025652862548828124
0.024109130859374998
0.02245004653930664
0.020684368133544923
0.018821388244628905
0.016870920181274413
0.014843402862548826
0.012750170707702636
0.010603689193725585
0.008417412757873536
0.006205302238464354
0.0039817895889282225
0.001761735677719116
-0.0004393736124038696
-0.0026053214073181153
-0.004719734668731689
-0.006766425132751464
-0.00872932529449463
-0.0105925235748291
-0.012340295791625976
-0.01395697021484375
-0.01542749214172363
-0.016738004684448242
-0.017875452041625974
-0.01882777214050293
-0.019584232330322266
-0.02013507843017578
-0.02047201538085937
-0.020588851928710936
-0.02048111534118652
-0.020145662307739256
-0.0195806770324707
-0.01878533172607422
-0.01775996398925781
-0.01650704002380371
-0.015030980110168457
-0.013337392807006836
-0.011432870864868164
-0.009325557708740235
-0.007025784492492675
-0.004547034740447997
-0.0019056987762451172
0.0008806990981101989
0.00379388952255249
0.006814264297485351
0.009920247077941894
0.013088838577270508
0.016296531677246096
0.019521007537841795
0.022741168975830076
0.025934894561767577
0.02907943344116211
0.03215050506591796
0.03512281417846679
0.037972087860107424
0.04067323303222656
0.043200325012207025
0.04552903366088867
0.04763716888427734
0.049503784179687496
0.05111415863037109
0.052458740234374995
0.053525085449218746
0.05430325698852539
0.05478219985961914
0.054945205688476564
0.05478204345703124
0.054287414550781246
0.0534556655883789
0.05228690338134765
0.05079199600219726
0.04898999786376953
0.04691456604003906
0.044610427856445305
0.04211297607421875
0.03945909881591797
0.03668199157714844
0.03380660629272461
0.03087311553955078
0.027913837432861324
0.02495014953613281
0.022017570495605467
0.019147125244140625
0.01636332130432129
0.013703083038330077
0.011189291954040528
0.008800579071044921
0.006505966663360595
0.004261234760284423
0.001996975541114807
-0.0003147237300872803
-0.0026933150291442868
-0.005184823036193847
-0.00782534122467041
-0.010673601150512694
-0.013776696205139159
-0.017132612228393553
-0.02072702407836914
-0.024573398590087888
-0.028724105834960937
-0.03316719055175781
-0.03775539016723633
-0.042140609741210935
-0.045828903198242184
-0.04837194442749023
-0.049469352722167965
-0.04895758056640625
-0.046642032623291016
-0.04252002334594727
-0.036927589416503905
-0.030504638671874997
-0.024371917724609372
-0.01965787887573242
-0.01692849540710449
-0.01620821762084961
-0.01719205093383789
-0.019030487060546875
-0.020405048370361327
-0.019675188064575196
-0.014422322273254393
-0.002108936309814453
0.01890998077392578
0.049220298767089846
0.08836717987060545
0.13489897155761718
0.18671531677246095
0.24109280395507812
0.29424453735351563
0.3418537902832031
0.3800911254882812
0.40619165039062494
0.418626953125
0.4167266845703125
0.4004310607910156
0.37070556640625
0.32981732177734374
0.28110479736328126
0.2282972717285156
0.17471304321289063
0.12307109069824217
0.07604702758789061
0.03628976440429687
0.005495317459106445
-0.01581256866455078
-0.028190326690673825
-0.03298810577392578
-0.03164949798583984
-0.025535104751586914
-0.016473068237304683
-0.006772027015686035
0.00186918306350708
0.008527227401733397
0.012884716033935546
0.015256842613220214
0.01605390167236328
0.015580012321472167
0.014488462448120116
0.013819317817687986
0.014218324661254882
0.015912466049194336
0.018881195068359374
0.022707950592041014
0.02699606323242187
0.03151090621948242
0.035868179321289065
0.03959363555908203
0.042417327880859376
0.04420472335815429
0.0449599380493164
0.044898807525634764
0.04418896484375
0.04293934631347656
0.04131625366210937
0.0394424934387207
0.03744239425659179
0.03548786163330078
0.03367926788330078
0.032076972961425775
0.03077263832092285
0.029821577072143553
0.0292914981842041
0.029307098388671873
0.02991522979736328
0.03109061050415039
0.032810482025146484
0.03498538970947266
0.03748507690429687
0.04024104309082031
0.04318073654174805
0.04619178009033203
0.04920050430297851
0.052175361633300776
0.05502421951293945
0.0576599998474121
0.06021504211425781
0.06279714965820313
0.06514904022216797
0.06717338562011718
0.06887589263916016
0.06966591644287108
0.07044276428222657
0.07241409301757812
0.07410253143310547
0.07503785705566406
0.07290036010742186
0.0634460678100586
0.04944999694824219
0.03492761611938477
0.024046504974365234
0.024471179962158203
0.03499805450439453
0.0484871711730957
0.06016580963134765
0.06249717712402344
0.053885612487792965
0.04166506195068359
0.030133045196533204
0.023633346557617188
0.02513343048095703
0.030391500473022456
0.03673173522949219
0.043250751495361325
0.04816259765625
0.05264430236816406
0.0577364273071289
0.06297983551025389
0.06852510070800781
0.07422904968261719
0.07972882080078124
0.08510897064208985
0.09044110870361327
0.09562091827392578
0.10058901977539061
0.10531118774414062
0.1096980743408203
0.11366255950927734
0.11718356323242188
0.12025425720214843
0.1228843231201172
0.12515067291259763
0.12710383605957032
0.12875444030761718
0.13012254333496093
0.13121676635742185
0.13203790283203123
0.13259312438964843
0.1328817443847656
0.13288954162597658
0.13262074279785155
0.13209683227539062
0.13133537292480468
0.13035406494140622
0.1291533203125
0.12771503448486327
0.12601368713378905
0.12401573944091797
0.12169371032714843
0.11902761077880859
0.11600390624999998
0.11261819458007812
0.10887435913085937
0.10478368377685546
0.10036412811279295
0.09564004516601562
0.09063031005859373
0.0853482208251953
0.07980787658691406
0.074022705078125
0.06801080322265624
0.0617952880859375
0.05540156936645507
0.0488575553894043
0.042192726135253905
0.03543769073486328
0.028622011184692382
0.021773571014404296
0.014917849540710447
0.00807775592803955
0.0012737998962402343
-0.005475862503051757
-0.012153014183044434
-0.018739517211914063
-0.025217155456542968
-0.031567270278930665
-0.037771942138671875
-0.0438140640258789
-0.049677150726318356
-0.05534560012817383
-0.060805587768554686
-0.06604507446289062
-0.0710536651611328
-0.07582276153564453
-0.08034505462646484
-0.0846145782470703
-0.08862661743164062
-0.09237764739990234
-0.09586522674560546
-0.09908801269531249
-0.10204611206054687
-0.1047410659790039
-0.10717583465576172
-0.10935470581054688
-0.11128333282470702
-0.11296861267089843
-0.11441877746582031
-0.1156432647705078
-0.11665235900878905
-0.11745704650878906
-0.11806893920898437
-0.11850018310546874
-0.1187633590698242
-0.11887144470214843
-0.11883761596679687
-0.11867521667480468
-0.11839772796630858
-0.11801884460449219
-0.11755226135253906
-0.11701173400878906
-0.11641086578369139
-0.11576300811767577
-0.11508105468749999
-0.11437738037109374
-0.1136637725830078
-0.11295138549804687
-0.11225076293945312
-0.1115717315673828
-0.11092339324951171
-0.1103140869140625
-0.10975139617919921
-0.10924221038818359
-0.10879246520996094
-0.10840714263916014
-0.10809019470214844
-0.10784440612792968
-0.10767153930664063
-0.1075722427368164
-0.10754604339599608
-0.10759135437011719
-0.10770556640625
-0.10788511657714843
-0.10812552642822265
-0.10842147827148436
-0.10876692962646484
-0.1091551055908203
-0.1095786666870117
-0.11002979278564452
-0.11050027465820313
-0.11098165893554687
-0.11146531677246092
-0.1119426040649414
-0.1124049377441406
-0.11284390258789062
-0.11325137329101562
-0.1136196060180664
-0.11394131469726561
-0.11420968627929685
-0.11441847229003906
-0.11456200408935546
-0.11463529205322265
-0.11463405609130858
-0.1145547637939453
-0.11439466857910156
-0.11415187835693358
-0.113825439453125
-0.11341534423828124
-0.1129225616455078
-0.11234915161132812
-0.11169816589355468
-0.11097378540039061
-0.11018119812011719
-0.10932665252685547
-0.10841743469238281
-0.1074617462158203
-0.10646874999999999
-0.10544843292236328
-0.10441148376464843
-0.10336925506591796
-0.10233361053466795
-0.10131676483154296
-0.10033119201660155
-0.09938943481445313
-0.09850397491455078
-0.09768710327148437
-0.09695074462890625
-0.0963063507080078
-0.09576490783691405
-0.09533665466308593
-0.0950311050415039
-0.09485693359375
-0.09482193756103514
-0.09493296813964844
-0.0951959228515625
-0.09561570739746093
-0.09619607543945312
-0.096939697265625
-0.09784809875488282
-0.0989216537475586
-0.10015971374511717
-0.1015604248046875
-0.10312078857421875
-0.10483666229248045
-0.10670277404785156
-0.10871276855468749
-0.11085938262939452
-0.11313420867919921
-0.11552777099609374
-0.11802972412109373
-0.12062879180908202
-0.12331301879882811
-0.12606999969482421
-0.12888677978515625
-0.1317500305175781
-0.13464630126953125
-0.13756208801269532
-0.14048410034179687
-0.14339938354492188
-0.14629534912109374
-0.14915972900390623
-0.1519809112548828
-0.15474795532226562
-0.15745072937011717
-0.16008013916015623
-0.16262774658203125
-0.16508599853515624
-0.16744830322265625
-0.16970919799804687
-0.17186419677734374
-0.17391014099121094
-0.17584460449218747
-0.17766583251953122
-0.17937304687499997
-0.18096624755859372
-0.1824461975097656
-0.18381460571289063
-0.1850735626220703
-0.18622537231445313
-0.1872732696533203
-0.18822132873535155
-0.18907414245605467
-0.18983721923828126
-0.19051629638671874
-0.19111709594726561
-0.1916457824707031
-0.19210877990722655
-0.192512451171875
-0.1928631591796875
-0.1931670227050781
-0.19342929077148438
-0.1936551818847656
-0.19384991455078124
-0.19401783752441404
-0.1941629943847656
-0.19428863525390624
-0.19439697265625
-0.19449005126953126
-0.19456976318359373
-0.19463706970214842
-0.19469226074218748
-0.19473484802246094
-0.19476312255859374
-0.19477537536621092
-0.19477014160156247
-0.1947452392578125
-0.1946982727050781
-0.19462725830078123
-0.19453024291992185
-0.19440638732910157
-0.1942569580078125
-0.1940826721191406
-0.19388357543945312
-0.19366015625
-0.1934121398925781
-0.19313900756835936
-0.19284109497070312
-0.19251715087890625
-0.19216375732421873
-0.1917793273925781
-0.1913634796142578
-0.19091696166992186
-0.19044381713867187
-0.1899473419189453
-0.18942907714843749
-0.18889233398437497
-0.18834130859374998
-0.18777890014648435
-0.187209228515625
-0.18663446044921875
-0.18605258178710937
-0.18546728515625
-0.18488624572753906
-0.18432044982910156
-0.1837879638671875
-0.1833013000488281
-0.1828641357421875
-0.1824785003662109
-0.18214193725585937
-0.1818445587158203
-0.1815744934082031
-0.18131137084960938
-0.18102099609375
-0.18067884826660155
-0.18026812744140625
-0.1797698059082031
-0.17917385864257812
-0.17845933532714844
-0.1775902557373047
-0.17653604125976563
-0.17526890563964845
-0.1737683410644531
-0.1720302429199219
-0.17006124877929685
-0.16787179565429686
-0.16549896240234374
-0.16300354003906248
-0.16044407653808593
-0.15788745117187497
-0.15538597106933594
-0.1529751739501953
-0.1507190246582031
-0.14869894409179688
-0.14700587463378906
-0.14572607421874997
-0.1449281311035156
-0.14466998291015626
-0.14493357849121094
-0.14561589050292967
-0.1465234680175781
-0.14737184143066406
-0.14783151245117188
-0.14760534667968747
-0.1464683380126953
-0.14421649169921874
-0.14094029235839844
-0.1370167999267578
-0.1328562774658203
-0.1289496154785156
-0.1257237091064453
-0.12337144470214842
-0.12195095825195312
-0.1214727325439453
-0.12131077575683592
-0.12022908782958984
-0.11702236938476562
-0.11045603179931639
-0.09949355316162109
-0.08350338745117188
-0.06186503982543944
-0.03389714050292969
0.00014039230346679686
0.0390087432861328
0.08131929779052734
0.12548529052734375
0.16996463012695312
0.21327696228027343
0.2533229827880859
0.2873699645996094
0.31349481201171875
0.3307406616210937
0.3381343078613281
0.33518942260742185
0.32170709228515626
0.29758847045898434
0.2655193176269531
0.22940316772460936
0.1906020812988281
0.15123327636718747
0.11077784729003906
0.06783843231201171
0.028377975463867184
-0.003561986923217773
-0.02381193161010742
-0.027958177566528318
-0.022365272521972655
-0.012740304946899414
-0.00350947093963623
-0.0005930302739143371
-0.001980259656906128
-0.005375266075134277
-0.010418312072753906
-0.014818778991699217
-0.01903092575073242
-0.02363389778137207
-0.02740316772460937
-0.03000135231018066
-0.03099199295043945
-0.02978852081298828
-0.02658734893798828
-0.02173017501831055
-0.015468315124511718
-0.0083013916015625
-0.0008529839515686035
0.00652357530593872
0.01363069725036621
0.020246946334838867
0.02629329681396484
0.03176103973388671
0.03641586303710937
0.03992466735839843
0.04242783737182617
0.04427949523925781
0.04555544281005859
0.0467967643737793
0.04768734741210937
0.04633773422241211
0.0432780876159668
0.04050037765502929
0.040871574401855466
0.0510579833984375
0.07270057678222656
0.10039286804199217
0.12652374267578123
0.136851318359375
0.12177641296386718
0.08485948944091797
0.036321830749511716
-0.003626970767974853
-0.014204642295837401
0.01097114849090576
0.06619331359863281
0.13369412231445313
0.18757369995117185
0.21021340942382813
0.19737670898437498
0.15475157165527342
0.10068154907226562
0.05613876342773437
0.033505413055419916
0.040203014373779294
0.07270124816894531
0.1154602813720703
0.15385821533203126
0.1755338897705078
0.17376310729980468
0.1557110443115234
0.133207275390625
0.11520091247558592
0.10883657836914062
0.11272573089599608
0.12007785034179685
0.12736808776855468
0.1320333709716797
0.13380413818359374
0.1352513427734375
0.13711315917968747
0.13916644287109375
0.1414893035888672
0.1436480255126953
0.14553631591796873
0.1475281219482422
0.14974725341796874
0.15217025756835936
0.15487026977539062
0.15787878417968748
0.1611562805175781
0.16467964172363278
0.16840980529785154
0.1722707061767578
0.1762300567626953
0.1802945861816406
0.1844447784423828
0.1886547698974609
0.19290629577636717
0.19717291259765624
0.20143064880371092
0.20566101074218748
0.20983749389648435
0.21392779541015625
0.21790196228027342
0.22173101806640624
0.22538656616210934
0.2288416595458984
0.23207012939453123
0.23504492187499998
0.2377398681640625
0.24013406372070312
0.24220870971679684
0.24394525146484372
0.24532940673828127
0.2463470458984375
0.2469804229736328
0.24722293090820313
0.2470728607177734
0.24651345825195312
0.24553543090820312
0.24413623046874997
0.24230259704589843
0.24004423522949217
0.23739845275878904
0.2343688049316406
0.23095849609374997
0.22723056030273436
0.22322030639648438
0.21895037841796874
0.21449069213867186
0.20985093688964843
0.20496189880371093
0.19985266113281247
0.19458459472656248
0.18900196838378905
0.18298400878906249
0.17671926879882813
0.17019453430175782
0.16334860229492187
0.15673283386230466
0.1495250244140625
0.14065492248535155
0.13157533264160157
0.12277181243896482
0.11650157928466796
0.11690179443359375
0.12150928497314452
0.12665275573730467
0.12850050354003903
0.11981104278564453
0.10170897674560546
0.08110891723632811
0.06268689727783203
0.05379547119140625
0.05618403625488281
0.06288810729980468
0.06981362152099609
0.07282974243164063
0.06905067443847655
0.06258356094360351
0.05600349807739258
0.05010123825073242
0.04650654220581054
0.043941520690917966
0.04128263092041016
0.038904541015624995
0.03658522033691406
0.034388805389404295
0.03258046722412109
0.030972831726074217
0.02940610122680664
0.027907569885253905
0.026449279785156248
0.024972927093505858
0.023483154296875
0.02199134063720703
0.020488176345825195
0.01899100685119629
0.017521297454833985
0.016058032989501952
0.014587417602539062
0.013113220214843749
0.011628695487976072
0.010130020141601562
0.008617819786071778
0.007087074756622314
0.005534474849700927
0.003963421821594238
0.0023770201206207275
0.0007778044939041137
-0.0008301583528518676
-0.0024432117938995358
-0.004057349205017089
-0.005667512416839599
-0.007268488407135009
-0.008854944229125975
-0.010421344757080078
-0.011962085723876952
-0.01347144889831543
-0.014943622589111328
-0.016372764587402344
-0.017753084182739257
-0.019079017639160156
-0.020345369338989255
-0.02154743194580078
-0.02268112564086914
-0.02374309158325195
-0.02473076057434082
-0.025642393112182617
-0.026477067947387693
-0.0272346134185791
-0.027915517807006837
-0.02852091598510742
-0.029052536010742185
-0.029512722015380858
-0.02990442657470703
-0.030231145858764647
-0.03049689483642578
-0.03070619201660156
-0.030864017486572262
-0.03097584152221679
-0.03104754638671875
-0.0310851993560791
-0.031094917297363283
-0.03108283233642578
-0.031054969787597655
-0.03101739120483398
-0.030976165771484373
-0.030936901092529296
-0.030904748916625972
-0.030884397506713863
-0.03088002777099609
-0.030895763397216794
-0.03093564224243164
-0.03100320434570312
-0.031101453781127927
-0.03123281097412109
-0.031398902893066405
-0.03160111618041992
-0.031840602874755854
-0.03211721801757812
-0.032429725646972656
-0.032775238037109376
-0.03314907073974609
-0.033547206878662104
-0.033966411590576166
-0.03440370941162109
-0.034856578826904294
-0.035321281433105464
-0.03579250335693359
-0.03626530838012695
-0.03673512649536132
-0.03719613647460937
-0.037641868591308594
-0.03806301116943359
-0.038446884155273434
-0.038783348083496094
-0.03906473159790039
-0.03928662872314453
-0.039448921203613284
-0.039546485900878905
-0.03956790161132812
-0.039501533508300775
-0.0393381118774414
-0.039073326110839836
-0.03870632171630859
-0.038233013153076166
-0.037640605926513665
-0.036921340942382815
-0.036080078125
-0.035120697021484376
-0.034036483764648434
-0.03280482864379883
-0.03139862060546875
-0.029796117782592772
-0.02800990295410156
-0.02608131408691406
-0.024036478042602536
-0.0219556884765625
-0.020000413894653322
-0.01832870864868164
-0.01706053352355957
-0.016255865097045897
-0.015824460029602052
-0.01562816143035889
-0.015647981643676756
-0.015666074752807617
-0.01511007499694824
-0.013634265899658203
-0.011283706665039061
-0.008350481986999512
-0.005685098648071289
-0.0029637155532836914
0.0021191544532775876
0.010710741996765135
0.021299930572509763
0.02825013732910156
0.02199798202514648
-0.003348685264587402
-0.04336285400390625
-0.08389511108398437
-0.10505260467529295
-0.09095448303222656
-0.042934066772460935
0.022777730941772458
0.08280325317382811
0.11446035003662108
0.11269753265380858
0.08576736450195312
0.04701840209960938
0.012409732818603515
-0.014945566177368164
-0.0360294075012207
-0.04973291778564453
-0.058070739746093746
-0.05583785247802734
-0.04206143951416016
-0.024316886901855465
-0.0074533371925354
0.0013801610469818114
0.0001274442672729492
-0.005090273380279541
-0.010718513488769529
-0.014170949935913085
-0.014553787231445313
-0.014492268562316894
-0.014989994049072265
-0.015549549102783201
-0.01602560806274414
-0.015978656768798827
-0.015337820053100585
-0.014563031196594236
-0.013842967987060547
-0.01310061454772949
-0.012326982498168944
-0.011640930175781248
-0.011139266967773436
-0.010861740112304688
-0.010839741706848142
-0.010983309745788573
-0.011115877151489257
-0.011217485427856444
-0.011391201972961425
-0.011516515731811523
-0.011273858070373535
-0.010650065422058106
-0.00972989559173584
-0.008441234588623047
-0.007366605758666991
-0.005957004547119141
-0.0018471338748931882
0.004423508644104003
0.010742734909057616
0.014002564430236815
0.006656073570251464
-0.01178471565246582
-0.03331862258911132
-0.050962463378906246
-0.05287356567382812
-0.03545556640625
-0.010898750305175781
0.011733740806579589
0.021865341186523436
0.01353084945678711
-0.0031242358684539792
-0.020671514511108397
-0.033795749664306644
-0.037886585235595696
-0.03782381057739257
-0.03801020050048828
-0.04124896240234375
-0.048745079040527335
-0.05676382064819335
-0.060447631835937495
-0.05228381729125976
-0.030316293716430662
-0.0011771917343139648
0.02599135971069336
0.03532815170288086
0.017982040405273438
-0.019526391983032226
-0.06537376403808592
-0.09982411193847655
-0.10803359222412108
-0.09187223052978515
-0.060866882324218746
-0.030940984725952147
-0.01551102066040039
-0.016551353454589843
-0.029582389831542967
-0.0465382080078125
-0.0607293586730957
-0.07019670104980467
-0.07576081848144531
-0.07930275726318359
-0.08177716064453125
-0.0831818389892578
-0.08301513671875
-0.08046099853515624
-0.07554782104492187
-0.06877635955810546
-0.06063983535766601
-0.05210983276367188
-0.04355073928833008
-0.034417308807373044
-0.024656240463256835
-0.014442989349365234
-0.0033206973075866697
0.00931337547302246
0.02451018714904785
0.044225944519042965
0.06952686309814453
0.10005538940429687
0.135741455078125
0.17653990173339842
0.21987570190429684
0.26268743896484376
0.30292645263671875
0.33600488281249996
0.3623483276367187
0.3855947875976562
0.4013749389648437
0.40717016601562495
0.39610275268554684
0.35523309326171876
0.2871419982910156
0.19879241943359374
0.10312243652343749
0.026283290863037108
-0.018258956909179686
-0.02465145492553711
0.005359250068664551
0.050715206146240234
0.09272830963134765
0.11634220123291016
0.11111783599853516
0.08376750183105468
0.04553963470458984
0.008527645111083984
-0.01614519691467285
-0.027439224243164063
-0.029494266510009765
-0.027872055053710935
-0.02766932106018066
-0.029885742187499998
-0.03281975555419921
-0.034450675964355464
-0.03389078140258789
-0.03145853614807129
-0.02795801544189453
-0.024348636627197263
-0.021176288604736325
-0.018418529510498046
-0.016008848190307616
-0.014007936477661131
-0.012129652976989745
-0.011089842796325682
-0.012908716201782225
-0.017208751678466798
-0.02216206741333008
-0.02479818725585937
-0.019394567489624023
-0.006088469505310058
0.009423361778259276
0.0215368537902832
0.02226320457458496
0.010943982124328611
-0.004664589405059814
-0.01855650520324707
-0.024347974777221677
-0.02071917915344238
-0.013357440948486328
-0.005800658702850341
-0.0003904498815536499
0.002076920747756958
0.0038960926532745363
0.006129552364349365
0.008647572517395018
0.011504968643188476
0.014334274291992187
0.017004934310913086
0.01979513931274414
0.02275901985168457
0.02579031753540039
0.028861238479614255
0.03196526718139648
0.035075004577636716
0.03816655731201172
0.0412028579711914
0.04412366104125977
0.04691623306274414
0.049621307373046875
0.05226162338256836
0.05484796142578125
0.057392814636230464
0.059901874542236326
0.06238983917236327
0.06488092041015624
0.06739426422119141
0.06994435119628906
0.07254461669921874
0.07520623779296874
0.07794110107421874
0.08076202392578125
0.08367940521240233
0.08670226287841797
0.08983709716796874
0.09308739471435547
0.09645770263671874
0.09995298004150391
0.10357714843749999
0.10733380126953124
0.11122488403320312
0.1152501983642578
0.11940895080566405
0.12369931030273436
0.12811705017089844
0.13265588378906248
0.13730741882324218
0.14206109619140622
0.14690493774414062
0.15182537841796875
0.15680670166015626
0.16183145141601563
0.16688046264648435
0.17193307495117188
0.17696736145019532
0.18196005249023434
0.18688653564453123
0.19172116088867186
0.19643768310546875
0.20100944519042968
0.20540975952148438
0.2096119689941406
0.21358926391601563
0.21731498718261716
0.22076303100585934
0.22390780639648436
0.22672454833984373
0.22918945312499997
0.2312795715332031
0.23297306823730468
0.23424971008300782
0.23509077453613278
0.2354792785644531
0.23540014648437496
0.23483990478515623
0.23378707885742187
0.23223251342773438
0.23016937255859374
0.22759335327148436
0.22450250244140624
0.22089746093749998
0.216781494140625
0.21216062927246093
0.20704373168945311
0.20144229125976562
0.19537039184570312
0.1888446350097656
0.18188388061523436
0.17450938415527342
0.1667445068359375
0.158614501953125
0.15014634704589844
0.1413684539794922
0.13231065368652342
0.12300405883789063
0.11348079681396483
0.10377387237548828
0.09391696166992188
0.08394416809082031
0.07388992309570312
0.06378878021240234
0.05367523956298828
0.043583549499511716
0.03354750442504882
0.023600313186645506
0.013774476051330566
0.0041016674041748045
-0.005387427330017089
-0.014663339614868163
-0.023697982788085936
-0.032464828491210934
-0.040939056396484375
-0.049097763061523435
-0.05692010879516601
-0.0643875503540039
-0.07148393249511718
-0.078195556640625
-0.08451116943359374
-0.09042201232910156
-0.09592177581787109
-0.10100653839111327
-0.10567472076416015
-0.10992700195312499
-0.11376615142822266
-0.11719700622558593
-0.12022631835937499
-0.12286276245117186
-0.12511674499511719
-0.12700033569335936
-0.128527099609375
-0.12971199035644532
-0.13057113647460936
-0.13112184143066405
-0.1313824005126953
-0.13137191772460935
-0.1311103057861328
-0.13061805725097655
-0.12991630554199218
-0.12902658081054685
-0.12797082519531247
-0.12677112579345703
-0.1254496154785156
-0.12402828979492188
-0.12252883911132811
-0.12097242736816405
-0.11937950134277343
-0.11776956176757812
-0.11616105651855467
-0.11457123565673827
-0.1130160675048828
-0.11151016998291015
-0.11006680297851561
-0.10869779968261718
-0.10741359710693359
-0.10622325134277343
-0.10513446044921874
-0.10415357971191405
-0.10328566741943358
-0.1025345001220703
-0.10190260314941406
-0.10139128112792968
-0.10100079345703124
-0.10073027038574217
-0.10057796478271484
-0.10054112243652343
-0.1006161651611328
-0.10079869842529296
-0.10108351135253905
-0.10146468353271483
-0.10193557739257812
-0.1024888687133789
-0.10311654663085937
-0.10381006622314454
-0.10456039428710937
-0.10535812377929688
-0.10619364166259765
-0.10705725097656249
-0.10793928527832031
-0.1088302764892578
-0.10972109985351562
-0.11060307312011718
-0.11146809387207031
-0.11230863189697264
-0.11311784362792969
-0.11388960266113281
-0.11461851501464843
-0.11529995727539062
-0.11593006896972656
-0.11650566864013671
-0.11702431488037109
-0.11748429107666014
-0.11788449096679686
-0.11822457122802733
-0.11850475311279297
-0.11872579956054687
-0.11888903045654296
-0.11899628448486327
-0.11904981994628905
-0.11905242919921874
-0.11900733947753905
-0.11891815185546874
-0.11878881835937499
-0.11862368774414062
-0.11842743682861327
-0.11820501708984374
-0.11796170043945312
-0.11770292663574218
-0.11743431091308593
-0.11716153717041014
-0.11689025115966796
-0.11662594604492187
-0.11637401580810547
-0.1161394805908203
-0.11592697143554687
-0.11574064636230467
-0.11558396148681639
-0.11545977020263672
-0.11537033843994139
-0.11531725311279296
-0.11530143737792968
-0.11532333374023437
-0.11538275146484375
-0.11547903442382812
-0.1156110382080078
-0.11577706909179687
-0.11597480010986327
-0.11620156860351562
-0.11645414733886719
-0.11672866821289062
-0.1170208511352539
-0.11732583618164062
-0.11763821411132812
-0.11795256042480468
-0.1182633285522461
-0.11856459808349608
-0.11885055541992187
-0.11911537170410155
-0.11935313415527343
-0.1195580062866211
-0.11972422790527343
-0.1198458251953125
-0.11991688537597656
-0.11993178558349608
-0.11988481140136717
-0.11977058410644531
-0.11958412170410156
-0.11932110595703124
-0.11897804260253907
-0.11855229949951171
-0.11804212951660155
-0.11744665527343749
-0.11676588439941404
-0.11600018310546875
-0.11515060424804686
-0.1142186508178711
-0.11320604705810546
-0.11211558532714844
-0.11095101928710938
-0.10971627044677733
-0.10841606140136718
-0.10705667114257811
-0.1056453399658203
-0.10419097900390624
-0.10270439147949219
-0.10119579315185546
-0.09967510986328124
-0.09815308380126953
-0.0966399917602539
-0.09514528656005858
-0.0936784439086914
-0.0922474365234375
-0.09085821533203124
-0.08951754760742187
-0.08823259735107421
-0.08701115417480469
-0.08586342620849609
-0.08480009460449218
-0.08383131408691406
-0.08296594238281249
-0.08221139526367187
-0.08157421112060546
-0.08106118774414062
-0.08067670440673827
-0.0804197769165039
-0.08028933715820312
-0.08028305053710937
-0.08040229797363281
-0.08065682220458983
-0.08105278015136719
-0.08159066772460936
-0.08226610565185546
-0.0830675811767578
-0.08397576141357421
-0.08496896362304686
-0.08602010345458984
-0.08708760833740234
-0.08812922668457031
-0.08909856414794921
-0.08995044708251952
-0.09066154479980468
-0.09121715545654296
-0.09160717010498047
-0.09181795501708984
-0.09182437133789062
-0.09160404205322265
-0.09115127563476562
-0.09048033905029297
-0.08960591888427734
-0.08855511474609375
-0.08736164093017577
-0.08606188201904297
-0.08473308563232422
-0.08346258544921875
-0.08233453369140624
-0.08144947814941406
-0.08088748168945312
-0.08068348693847656
-0.08084886932373046
-0.08137911987304687
-0.0822300567626953
-0.08339778900146484
-0.08492288208007813
-0.08668428039550781
-0.08845438385009766
-0.09000037384033202
-0.0910294189453125
-0.0913996124267578
-0.09115321350097655
-0.0901379165649414
-0.08794337463378905
-0.08438186645507813
-0.0795780792236328
-0.07385275268554688
-0.06786508178710937
-0.061905113220214844
-0.05555239868164062
-0.048533458709716794
-0.0409963264465332
-0.03297692489624023
-0.024133415222167966
-0.013687671661376952
-9.799861907958983e-05
0.017848094940185542
0.040041206359863274
0.06604375457763673
0.09555487060546873
0.1280602264404297
0.16257412719726563
0.19736715698242188
0.22943075561523435
0.2555150756835937
0.2735814819335937
0.28221722412109373
0.28033648681640627
0.26737286376953123
0.2434339447021484
0.20965003967285156
0.16871661376953126
0.12420068359375
0.07930140686035156
0.036934432983398435
-0.0004227495193481445
-0.030813247680664062
-0.05290056991577148
-0.06628360748291015
-0.07177655029296874
-0.07106444549560546
-0.06606671142578124
-0.05880380249023437
-0.05094100952148437
-0.04383192443847656
-0.038507122039794915
-0.03544401931762695
-0.03457196044921875
-0.0353851089477539
-0.03712039566040039
-0.03889899444580078
-0.04015740585327148
-0.04056239700317383
-0.03991077423095703
-0.03824996566772461
-0.03575714874267578
-0.03272541427612304
-0.02959101676940918
-0.026835638046264647
-0.02474295997619629
-0.023434553146362305
-0.022946878433227538
-0.023198135375976564
-0.02410542869567871
-0.025581804275512692
-0.02746176528930664
-0.029547161102294918
-0.03167508316040039
-0.03371665191650391
-0.03559652709960937
-0.03729003143310546
-0.0387552261352539
-0.039935184478759767
-0.040789035797119136
-0.041286994934082034
-0.04142196655273438
-0.04120904159545898
-0.04065755844116211
-0.039774902343749995
-0.03857888031005859
-0.03709691619873047
-0.035371765136718754
-0.03345400619506836
-0.031393314361572264
-0.029237045288085933
-0.027019165039062498
-0.024761941909790038
-0.022484640121459957
-0.02020183944702148
-0.01792240905761719
-0.015651702880859375
-0.013386552810668945
-0.011116168975830077
-0.008834026336669921
-0.006536036491394042
-0.004217363834381103
-0.0018730764389038085
0.0005059812664985656
0.0029315266609191894
0.005415536403656006
0.007970083713531494
0.010605270385742186
0.013329216003417967
0.016149005889892577
0.019069942474365234
0.02209550666809082
0.025228378295898437
0.028468818664550782
0.03181498336791992
0.03526662445068359
0.038824508666992184
0.04248963928222656
0.04626364135742187
0.05014705276489257
0.05413892364501952
0.05823804092407226
0.062442817687988275
0.06674987792968749
0.07115425872802734
0.07564934539794922
0.08022669982910155
0.08487696075439453
0.08958981323242188
0.09435388946533203
0.09915670776367187
0.10398461151123045
0.10882284545898437
0.1136557159423828
0.11846665954589843
0.12323829650878905
0.12795272827148438
0.13259120178222655
0.13713436889648437
0.1415627746582031
0.1458568572998047
0.14999743652343747
0.15396585083007813
0.15774377441406248
0.16131329345703124
0.16465715026855468
0.16775891113281247
0.1706027679443359
0.1731736145019531
0.17545715332031248
0.1774397277832031
0.17910882568359374
0.18045292663574217
0.1814617004394531
0.18212612915039061
0.18243878173828124
0.18239392089843748
0.18198745727539062
0.1812171173095703
0.18008244323730468
0.17858479309082032
0.17672744750976563
0.17451551818847655
0.17195602416992187
0.16905780029296874
0.1658314514160156
0.16228939819335936
0.1584456787109375
0.1543159484863281
0.14991723632812498
0.14526788330078122
0.14038723754882812
0.13529556274414062
0.13001385498046875
0.12456354522705076
0.1189665298461914
0.11324494934082031
0.10742105102539061
0.10151715850830077
0.0955555419921875
0.08955841064453125
0.08354776000976562
0.07754541015625
0.07157279968261719
0.06565096282958985
0.05980047225952148
0.05404132461547851
0.04839282608032226
0.04287348556518555
0.03750091171264648
0.032291740417480466
0.027261508941650386
0.022424558639526367
0.017793914794921876
0.01338117504119873
0.009196451187133787
0.005248311996459961
0.0015437362194061278
-0.001911897897720337
-0.005114800453186035
-0.008062735557556152
-0.010754949569702148
-0.013192075729370116
-0.015376047134399414
-0.017309997558593748
-0.018998178482055664
-0.02044585037231445
-0.021659193038940427
-0.02264520263671875
-0.023411594390869137
-0.02396673774719238
-0.024319595336914062
-0.02447965621948242
-0.024456880569458005
-0.02426165771484375
-0.0239047737121582
-0.023397403717041014
-0.02275109481811523
-0.021977758407592772
-0.021089607238769528
-0.02009912109375
-0.01901896858215332
-0.0178619327545166
-0.016640813827514648
-0.015368321418762206
-0.014056946754455566
-0.012718849182128905
-0.011365749359130858
-0.010008850097656249
-0.00865876579284668
-0.007325469970703124
-0.00601826000213623
-0.004745727062225341
-0.003515740394592285
-0.002335450887680054
-0.001211293578147888
-0.00014898937940597534
0.0008464429378509522
0.0017706660032272338
0.0026199910640716554
0.0033913288116455076
0.00408213186264038
0.00469034481048584
0.005214364051818848
0.005653002738952636
0.00600546646118164
0.006271347045898437
0.00645064640045166
0.006543805122375487
0.006551750183105468
0.006475934028625488
0.006318351745605469
0.006081537246704101
0.0057685461044311515
0.005382919311523437
0.004928621768951416
0.004409982681274413
0.003831621646881103
0.0031983587741851805
0.002515151500701904
0.001787039279937744
0.001019092559814453
0.00021638810634613036
-0.0006160293221473694
-0.001473198890686035
-0.0023502907752990724
-0.003242633819580078
-0.00414575719833374
-0.005055411338806152
-0.0059675884246826166
-0.006878560066223144
-0.007784861564636231
-0.008683265686035155
-0.009570745468139647
-0.010444407463073731
-0.011301469802856444
-0.012139238357543944
-0.012955089569091796
-0.013746484756469725
-0.014510990142822266
-0.015246309280395507
-0.015950318336486816
-0.016621160507202144
-0.017257274627685545
-0.017857416152954098
-0.018420673370361327
-0.018946413040161134
-0.019434255599975588
-0.019884098052978513
-0.02029608917236328
-0.020670547485351562
-0.02100794792175293
-0.02130887222290039
-0.021573980331420897
-0.02180410003662109
-0.02200020599365234
-0.022163375854492188
-0.02229475975036621
-0.022395553588867186
-0.02246696853637695
-0.022510272979736325
-0.022526790618896484
-0.02251779556274414
-0.02248451232910156
-0.022428123474121094
-0.022349796295166015
-0.022250789642333985
-0.02213254737854004
-0.021996656417846677
-0.02184486961364746
-0.021679056167602538
-0.021501171112060544
-0.021313339233398437
-0.021117862701416017
-0.02091700553894043
-0.02071294593811035
-0.02050772666931152
-0.02030318450927734
-0.02010118293762207
-0.01990364837646484
-0.019712352752685545
-0.019528892517089842
-0.019354824066162107
-0.01919163703918457
-0.0190408821105957
-0.01890425872802734
-0.018783233642578123
-0.018679004669189453
-0.018592580795288083
-0.01852472686767578
-0.01847597312927246
-0.018446674346923826
-0.018436817169189452
-0.018445875167846678
-0.018473117828369138
-0.018517583847045896
-0.01857819938659668
-0.018653915405273436
-0.018743301391601564
-0.018844419479370114
-0.018954910278320313
-0.019071998596191405
-0.019192707061767577
-0.019313968658447266
-0.01943227958679199
-0.019543535232543943
-0.01964364242553711
-0.01972855567932129
-0.019794404983520506
-0.01983773803710937
-0.019854799270629882
-0.019841537475585938
-0.01979426574707031
-0.019709739685058594
-0.019584829330444337
-0.019416597366333006
-0.019202102661132814
-0.018938114166259765
-0.018622060775756837
-0.01825213623046875
-0.01782685089111328
-0.017345287322998046
-0.016807432174682616
-0.016214263916015624
-0.015568220138549804
-0.014873718261718748
-0.014136104583740233
-0.013361272811889646
-0.012555955886840818
-0.011727240562438963
-0.010882425308227538
-0.01002936840057373
-0.009175752639770506
-0.008328121185302734
-0.0074933733940124505
-0.006679365158081054
-0.005895092010498046
-0.005152201652526855
-0.004462900161743164
-0.003837950944900512
-0.003288252115249634
-0.002824729681015014
-0.0024578509330749508
-0.00219907808303833
-0.00205620002746582
-0.002031087636947632
-0.0021288070678710936
-0.002357805490493774
-0.0027304515838623045
-0.003267105579376221
-0.003983660697937011
-0.004886335372924804
-0.005980674743652344
-0.0072679705619812015
-0.0087387638092041
-0.010380790710449218
-0.012168869018554686
-0.014059919357299805
-0.016015939712524414
-0.018000915527343748
-0.019984735488891597
-0.021952756881713865
-0.023879085540771484
-0.025723869323730466
-0.027443264007568358
-0.028985126495361325
-0.03031073760986328
-0.03140906143188476
-0.03226477050781249
-0.03286331939697266
-0.03322791290283203
-0.0333956298828125
-0.03344225311279297
-0.03348282623291016
-0.03359147262573242
-0.03383340454101562
-0.03428023529052734
-0.034987037658691406
-0.036044998168945304
-0.037564907073974606
-0.03961392974853516
-0.04227664947509765
-0.04564263534545898
-0.04966043090820312
-0.05422962188720702
-0.05917805099487305
-0.06411679077148437
-0.06868048858642578
-0.0725289840698242
-0.07516944885253907
-0.07625167846679687
-0.07578482818603514
-0.07393517303466796
-0.07115585327148437
-0.06820603942871094
-0.06556757354736328
-0.06363756561279298
-0.06299442291259766
-0.06374281311035157
-0.06532901000976563
-0.0667333984375
-0.06628239440917968
-0.061997135162353514
-0.0523377456665039
-0.035811271667480465
-0.010772319793701171
0.02356366157531738
0.06692758178710938
0.11807772827148437
0.17467381286621092
0.23396041870117187
0.2931445617675781
0.34886770629882813
0.397264404296875
0.4351316833496094
0.4602998352050781
0.47170574951171873
0.46927377319335933
0.4531817016601562
0.42433645629882805
0.3849774475097656
0.3383502197265625
0.2878648681640625
0.23647485351562497
0.18641943359375
0.13977511596679687
0.09898509216308593
0.06567716979980469
0.0401989402770996
0.021963848114013668
0.009669267654418945
0.002047706127166748
-0.0017765442132949827
-0.0030866694450378414
-0.0038020510673522946
-0.005304203033447265
-0.0083178129196167
-0.013054872512817383
-0.019055301666259763
-0.025830621719360347
-0.03311192321777344
-0.04031335067749023
-0.04654584884643555
-0.051270019531249995
-0.054208652496337884
-0.05533046722412109
-0.05499574661254883
-0.053594406127929685
-0.05148328781127929
-0.04912332534790039
-0.04699555969238281
-0.04539705276489258
-0.04448419189453125
-0.04431765747070312
-0.044834548950195306
-0.045973144531249996
-0.04766601181030273
-0.049796691894531245
-0.05223254776000976
-0.05487136840820312
-0.05765835952758788
-0.060544479370117185
-0.06347929382324217
-0.06636823272705078
-0.06906740570068358
-0.07147196197509764
-0.07352070617675781
-0.07517625427246093
-0.07642256927490235
-0.07724393463134764
-0.0776249542236328
-0.07757927703857422
-0.07715475463867187
-0.07639559173583985
-0.07534021759033203
-0.07401985931396485
-0.07244982910156249
-0.07065914154052733
-0.06868984985351562
-0.06658956146240233
-0.0644136505126953
-0.062202857971191405
-0.05998118591308593
-0.05776628112792968
-0.05557032012939453
-0.05340027236938476
-0.05125958251953124
-0.04914071273803711
-0.04702367782592773
-0.04489323425292969
-0.0427393684387207
-0.040554176330566405
-0.03833351135253906
-0.03606869506835938
-0.03374684906005859
-0.03135595703125
-0.028884880065917967
-0.026324035644531247
-0.023665786743164063
-0.020902727127075197
-0.018027805328369142
-0.01503657341003418
-0.011926474571228028
-0.008697158813476562
-0.005350894927978515
-0.0018893322944641112
0.0016863631010055541
0.005374104499816894
0.009171299934387206
0.013074001312255858
0.017076414108276365
0.02117193603515625
0.025353143692016602
0.029610511779785156
0.033932647705078124
0.03830661773681641
0.04271796798706055
0.04715132141113281
0.05159047317504882
0.056018047332763665
0.06041571044921874
0.06476454162597656
0.06904522705078125
0.07323796844482422
0.07732250976562499
0.08127819061279297
0.085084228515625
0.08872016906738281
0.0921661148071289
0.09540248870849609
0.09841020965576172
0.10117079925537108
0.10366671752929688
0.1058815460205078
0.10780018615722656
0.10940884399414061
0.11069508361816405
0.1116480484008789
0.11225855255126953
0.11251934814453124
0.11242524719238281
0.11197299194335936
0.11116137695312499
0.10999117279052734
0.10846513366699219
0.10658827209472656
0.10436779022216795
0.10181292724609374
0.09893479919433594
0.09574626922607421
0.0922618179321289
0.0884974899291992
0.08447082519531249
0.08020050048828124
0.07570616149902343
0.07100833892822266
0.06612826538085938
0.06108790588378906
0.05590970230102539
0.05061643981933594
0.045231056213378903
0.03977654266357422
0.034275760650634764
0.02875135040283203
0.02322555160522461
0.017720043182373045
0.012255778312683105
0.006852869987487792
0.0015304851531982421
-0.0036932365894317624
-0.00880126953125
-0.013777804374694823
-0.018608356475830076
-0.023279823303222657
-0.027780532836914062
-0.03210027694702148
-0.03623029708862305
-0.040163330078125
-0.04389359664916992
-0.0474167251586914
-0.050729667663574216
-0.0538305435180664
-0.056718521118164056
-0.05939367675781249
-0.061856910705566405
-0.06410974884033203
-0.06615430450439452
-0.06799311828613282
-0.06962905120849609
-0.07106526947021484
-0.07230511474609375
-0.07335212707519531
-0.07420982360839844
-0.07488177490234375
-0.07537133789062499
-0.0756817169189453
-0.07581581115722656
-0.07577626037597655
-0.07556532287597656
-0.07518494415283203
-0.07463667297363281
-0.07392172241210937
-0.07304099273681641
-0.07199510955810547
-0.0707843780517578
-0.06940879821777343
-0.06786802673339844
-0.06616140747070312
-0.06428802490234374
-0.06224669647216797
-0.06003609466552734
-0.05765485763549805
-0.05510166931152343
-0.05237545394897461
-0.04947555541992187
-0.04640187454223632
-0.04315499114990234
-0.039736225128173826
-0.03614774703979492
-0.03239261627197265
-0.02847486877441406
-0.024399505615234372
-0.020172554016113283
-0.015801061630249025
-0.011293155670166014
-0.00665806484222412
-0.0019061566591262815
0.0029510719776153563
0.007901053428649902
0.012930234909057616
0.018024162292480467
0.023167606353759765
0.028344671249389646
0.0335389404296875
0.038733589172363275
0.04391150283813476
0.049055351257324215
0.054147613525390624
0.05917066955566406
0.0641068344116211
0.06893851470947265
0.07364833068847655
0.07821925354003906
0.08263477325439453
0.08687911224365234
0.0909373779296875
0.09479579162597655
0.09844181060791016
0.10186421966552735
0.1050531997680664
0.10800038146972656
0.11069889068603515
0.1131434097290039
0.11533021545410156
0.11725721740722655
0.11892398071289062
0.12033180236816406
0.12148360443115233
0.12238409423828125
0.12303958892822264
0.12345791625976561
0.12364823913574217
0.12362097167968748
0.12338753509521483
0.12296025085449218
0.12235221862792969
0.12157716369628906
0.12064933013916015
0.11958341217041014
0.11839452362060546
0.11709812164306639
0.11570986938476562
0.11424546813964842
0.11272051239013671
0.11115032958984374
0.10954979705810546
0.10793316650390623
0.10631394958496093
0.10470474243164063
0.10311715698242187
0.10156177520751952
0.10004818725585936
0.09858492279052734
0.09717943572998047
0.09583805847167969
0.09456582641601562
0.09336650085449218
0.09224252319335936
0.09119508361816404
0.09022399902343749
0.08932782745361327
0.08850389099121093
0.08774848175048827
0.08705706787109374
0.0864245147705078
0.08584508514404297
0.08531256103515625
0.08482024383544921
0.08436115264892578
0.08392803192138672
0.08351335906982421
0.08310936737060545
0.08270805358886718
0.08230131530761718
0.08188117218017578
0.08143997955322264
0.08097050476074219
0.08046604919433593
0.07992036437988281
0.07932742309570312
0.0786818389892578
0.07797924041748046
0.07721588897705078
0.07638837432861327
0.07549284362792968
0.0745249557495117
0.07348211669921874
0.07236592102050782
0.07118135070800781
0.06993295288085938
0.0686240234375
0.06725570678710936
0.06583049011230468
0.0643565444946289
0.06283688354492187
0.06125837707519532
0.059594940185546875
0.05782600021362304
0.055944728851318355
0.05396492004394531
0.05191177368164062
0.04979401397705078
0.04763932037353515
0.04553201293945312
0.04358853912353515
0.04188831710815429
0.04045931243896484
0.03927045440673828
0.03824340057373047
0.03734584808349609
0.03645210266113281
0.035184921264648436
0.03319877624511718
0.030450313568115235
0.027091705322265625
0.02339559745788574
0.018854217529296873
0.011980557441711425
0.0018573483228683468
-0.010493833541870118
-0.020267539978027344
-0.020910785675048827
-0.007930864810943603
0.01783737564086914
0.04659660339355468
0.06535700988769531
0.06327168655395507
0.036375049591064454
-0.006233558654785155
-0.049814445495605465
-0.0792813720703125
-0.08482046508789062
-0.06930982971191404
-0.04275506591796875
-0.018160430908203122
-0.005699172973632812
-0.007107216358184814
-0.018565841674804687
-0.03319365692138672
-0.04565764617919922
-0.054461776733398436
-0.06035336303710937
-0.06537086486816406
-0.07060551452636718
-0.07596680450439453
-0.08123867797851562
-0.08616488647460938
-0.09083934020996093
-0.09560021972656249
-0.10058863067626952
-0.10581644439697264
-0.11129423522949218
-0.11700131225585936
-0.12290368652343749
-0.12895396423339842
-0.13507048034667968
-0.14116302490234375
-0.14716697692871092
-0.1530625762939453
-0.15882971191406248
-0.16439010620117187
-0.16967355346679688
-0.17462336730957032
-0.1791707611083984
-0.18331515502929685
-0.18708523559570311
-0.19040873718261717
-0.1931918029785156
-0.1955564270019531
-0.19765728759765622
-0.1994043426513672
-0.20086247253417966
-0.20211007690429686
-0.20283724975585937
-0.20411021423339842
-0.20693090820312499
-0.20999041748046873
-0.21297306823730466
-0.2134372863769531
-0.20846530151367187
-0.20147970581054686
-0.19469454956054685
-0.19145419311523434
-0.19640502929687498
-0.20548965454101562
-0.2152067413330078
-0.22299819946289062
-0.22448194885253905
-0.22198809814453124
-0.2181587677001953
-0.2134342498779297
-0.20944303894042968
-0.2053314819335937
-0.1998302001953125
-0.1934765930175781
-0.1870226135253906
-0.18137615966796874
-0.1772041320800781
-0.174442138671875
-0.17237716674804685
-0.17000624084472657
-0.16668377685546876
-0.16137016296386716
-0.15225372314453123
-0.13754533386230466
-0.11567272949218749
-0.08583817291259765
-0.048728073120117184
-0.005806024551391601
0.04174011993408203
0.09199365234375
0.1420368194580078
0.1885671691894531
0.22776373291015625
0.2565397338867187
0.27346398925781246
0.2777210083007812
0.2684412231445312
0.24591926574707026
0.211668212890625
0.16815841674804685
0.11918135833740233
0.06830198669433593
0.018110351562499998
-0.028616502761840818
-0.06887733459472656
-0.10075581359863281
-0.12335820007324219
-0.13687420654296875
-0.142882080078125
-0.14301860046386716
-0.13865370178222655
-0.13180497741699218
-0.1248514175415039
-0.11951253509521483
-0.11690538787841796
-0.11739164733886717
-0.1204794921875
-0.12572378540039061
-0.13258335876464844
-0.13987139892578124
-0.14649057006835936
-0.15190930175781248
-0.15567715454101563
-0.15799345397949216
-0.15862713623046873
-0.1559605712890625
-0.15055058288574216
-0.14472193908691405
-0.14208590698242185
-0.14844877624511718
-0.16469552612304686
-0.1858826904296875
-0.2044730987548828
-0.21147425842285153
-0.2034470977783203
-0.1849924621582031
-0.1657232208251953
-0.15455413818359373
-0.15619142150878904
-0.16950634765625
-0.18646839904785156
-0.20088888549804684
-0.20941403198242187
-0.21028895568847655
-0.20758892822265623
-0.20423428344726563
-0.20099937438964843
-0.19936650085449217
-0.19817930603027342
-0.19641622924804686
-0.19446690368652342
-0.19213510131835937
-0.18956124877929686
-0.18707901000976562
-0.18453472900390624
-0.1817992706298828
-0.17891201782226562
-0.17584512329101562
-0.17257687377929687
-0.16914605712890624
-0.16557711791992188
-0.1618697814941406
-0.15804154968261716
-0.1541141357421875
-0.15007109069824218
-0.14590165710449216
-0.14160717773437498
-0.1371744689941406
-0.13259213256835936
-0.12785135650634763
-0.12293705749511719
-0.11783686065673828
-0.11254563903808593
-0.10705844116210937
-0.10137091064453124
-0.09548110961914062
-0.08938723754882812
-0.08309037780761719
-0.07659513854980468
-0.06990533447265625
-0.06302468872070312
-0.055957618713378905
-0.04870880126953125
-0.041284969329833984
-0.03369492721557617
-0.02594815063476562
-0.01805517768859863
-0.010028761863708496
-0.0018835999965667724
0.006363613128662109
0.014694178581237791
0.02308835411071777
0.031525266647338866
0.03998268127441405
0.048437229156494135
0.05686434173583984
0.06523838806152343
0.07353296661376953
0.08172103881835938
0.08977505493164062
0.09766729736328124
0.10536968994140623
0.11285401916503907
0.1200925064086914
0.12705787658691406
0.13372372436523436
0.14006475830078124
0.14605662536621092
0.1516761016845703
0.15690151977539063
0.16171281433105467
0.16609149169921875
0.17002102661132812
0.1734866485595703
0.17647566223144528
0.17897747802734373
0.1809837646484375
0.1824883117675781
0.183487060546875
0.1839785003662109
0.18396339416503904
0.18344488525390623
0.18242840576171873
0.18092160034179688
0.1789344024658203
0.17647886657714842
0.17356924438476562
0.17022172546386716
0.16645428466796874
0.1622865753173828
0.1577398681640625
0.15283685302734373
0.14760142517089844
0.1420586700439453
0.13623457336425782
0.1301559143066406
0.12385014343261719
0.11734521484374999
0.11066935729980468
0.10385093688964844
0.09691830444335936
0.0898995590209961
0.08282233428955078
0.0757136993408203
0.06860000610351562
0.0615066909790039
0.05445822525024414
0.04747805023193359
0.04058847427368164
0.033810707092285154
0.02716474723815918
0.02066932678222656
0.014341882705688477
0.008198484420776368
0.0022538180351257325
-0.0034788713455200194
-0.008987817764282226
-0.01426275825500488
-0.019294912338256833
-0.024076930999755858
-0.02860284042358398
-0.03286797332763672
-0.03686894989013671
-0.040603599548339836
-0.044070976257324215
-0.04727127456665039
-0.05020584869384765
-0.052877185821533196
-0.05528886413574219
-0.057445564270019525
-0.059352958679199215
-0.061017631530761715
-0.06244696426391601
-0.06364899444580079
-0.06463230895996093
-0.06540599060058594
-0.06597943115234375
-0.06636235809326171
-0.06656472015380858
-0.06659670257568359
-0.06646867370605469
-0.06619119262695311
-0.06577496337890625
-0.06523080444335938
-0.0645695571899414
-0.06380202484130859
-0.0629389419555664
-0.061990875244140625
-0.0609682159423828
-0.05988114929199218
-0.058739654541015617
-0.057553497314453125
-0.056332256317138674
-0.055085311889648436
-0.0538218765258789
-0.05255089950561523
-0.05128106307983398
-0.050020675659179684
-0.048777595520019534
-0.04755916595458984
-0.04637212753295898
-0.04522258758544922
-0.04411600494384765
-0.04305717468261718
-0.04205026626586914
-0.041098838806152345
-0.04020589065551758
-0.03937386322021484
-0.038604660034179686
-0.037899627685546874
-0.037259529113769535
-0.036684547424316406
-0.03617426300048828
-0.03572766876220703
-0.03534320068359375
-0.03501875686645508
-0.034751747131347654
-0.03453915023803711
-0.034377571105957024
-0.03426326751708984
-0.03419220733642578
-0.03415999984741211
-0.034161941528320305
-0.03419301605224609
-0.03424788284301757
-0.03432093048095703
-0.03440631103515625
-0.03449799346923828
-0.034589851379394534
-0.034675781249999996
-0.03474978256225586
-0.034806102752685544
-0.03483930587768554
-0.03484432601928711
-0.03481649398803711
-0.03475159072875977
-0.03464590835571289
-0.03449626541137695
-0.034300048828125
-0.03405521774291992
-0.033760337829589836
-0.03341463088989258
-0.033018020629882815
-0.0325711555480957
-0.032075424194335934
-0.031532871246337885
-0.030946163177490237
-0.03031855773925781
-0.029653856277465817
-0.028956378936767575
-0.02823091125488281
-0.027482650756835935
-0.026717170715332028
-0.025940412521362304
-0.025158702850341795
-0.024378723144531246
-0.023607475280761715
-0.022852176666259764
-0.02212015151977539
-0.021418773651123043
-0.020755428314208985
-0.020137420654296873
-0.01957188606262207
-0.01906565856933594
-0.018625190734863278
-0.018256502151489256
-0.017965217590332032
-0.01775651168823242
-0.017634998321533202
-0.01760465621948242
-0.017668745040893552
-0.017829790115356445
-0.018089605331420896
-0.01844927215576172
-0.0189090576171875
-0.019468368530273436
-0.02012579917907715
-0.02087917137145996
-0.021725700378417968
-0.022662046432495118
-0.02368433380126953
-0.024788173675537106
-0.02596856689453125
-0.027220027923583984
-0.028536722183227538
-0.029912528991699217
-0.031341007232666016
-0.03281539916992187
-0.03432859802246094
-0.03587330627441406
-0.03744237899780273
-0.039028850555419915
-0.04062584686279297
-0.042226547241210936
-0.04382418441772461
-0.045412189483642576
-0.04698439025878906
-0.048535064697265616
-0.050058746337890626
-0.05155015563964843
-0.05300434494018554
-0.054416809082031246
-0.055783622741699214
-0.057101478576660154
-0.05836758422851562
-0.059579486846923824
-0.06073519897460937
-0.06183328247070312
-0.06287298583984374
-0.0638542366027832
-0.06477736663818359
-0.0656428985595703
-0.06645149230957031
-0.06720405578613281
-0.06790216064453125
-0.06854786682128905
-0.06914341735839843
-0.06969087982177734
-0.07019236755371093
-0.07065019226074218
-0.07106713104248047
-0.07144622802734374
-0.07179006195068359
-0.07210064697265625
-0.07237982940673827
-0.07262968444824218
-0.07285272216796874
-0.07305158233642577
-0.0732287368774414
-0.07338636779785156
-0.07352671813964842
-0.07365269470214843
-0.07376762390136718
-0.07387486267089843
-0.07397804260253905
-0.07408071899414062
-0.07418661499023436
-0.0743005142211914
-0.07442770385742187
-0.07457342529296875
-0.07474316406249999
-0.0749422607421875
-0.07517551422119141
-0.07544821166992187
-0.07576559448242187
-0.076131591796875
-0.07655018615722656
-0.07702494049072266
-0.07755918884277344
-0.0781580810546875
-0.07882675170898437
-0.07956987762451172
-0.08039276885986328
-0.08130021667480468
-0.08229716491699218
-0.08339005279541015
-0.0845822296142578
-0.08587174987792968
-0.08725818634033203
-0.08874095153808594
-0.09032231903076171
-0.09201162719726562
-0.09381059265136718
-0.09571405029296874
-0.09771783447265624
-0.09981486511230468
-0.10199576568603515
-0.10424862670898437
-0.10654707336425781
-0.10885186767578124
-0.11112981414794922
-0.11334989166259765
-0.1154910659790039
-0.11754721069335937
-0.11949850463867187
-0.12131939697265624
-0.12297898101806641
-0.12443365478515624
-0.1256658172607422
-0.12667591857910157
-0.12745304107666014
-0.12798303222656252
-0.12825889587402342
-0.1282921142578125
-0.1281474609375
-0.12792467498779297
-0.12768809509277343
-0.1274695587158203
-0.1272665557861328
-0.1270689239501953
-0.12692350769042968
-0.12688555908203125
-0.12701258850097655
-0.12736630249023437
-0.12792965698242187
-0.12871746826171873
-0.1298309631347656
-0.1312732696533203
-0.13295068359375
-0.134625
-0.13577810668945312
-0.13587814331054687
-0.13461376953124998
-0.1316155090332031
-0.1265302810668945
-0.11939789581298828
-0.1103637237548828
-0.09999327087402343
-0.08953015899658202
-0.08005764770507813
-0.07242955017089843
-0.06756031799316406
-0.06585237884521483
-0.06677507781982421
-0.06951636505126953
-0.07248812866210937
-0.07280286407470703
-0.0676735610961914
-0.05433503723144531
-0.0298118896484375
0.006362787246704101
0.05201676940917968
0.10547850036621093
0.16514152526855466
0.23151641845703122
0.30725885009765624
0.3897426147460937
0.4696217651367187
0.5319558105468749
0.5613304443359375
0.5508969116210938
0.5053322143554687
0.43940783691406243
0.3685030212402343
0.3017894897460937
0.24222982788085934
0.18667875671386716
0.13312600708007813
0.0840737533569336
0.04285738372802734
0.012640139579772948
-0.005444883346557617
-0.013241407394409179
-0.013606092453002929
-0.008819732666015625
-0.0011158344745635987
0.006961788654327393
0.013765707015991209
0.018381805419921873
0.02037332534790039
0.020299774169921875
0.01909249687194824
0.01730088996887207
0.01572304916381836
0.015451469421386718
0.01697022247314453
0.020457788467407225
0.025868026733398438
0.03261646270751953
0.04009449005126953
0.04787296295166015
0.05540778350830078
0.06215598678588867
0.06783859252929687
0.07228041076660156
0.07542315673828125
0.07739735412597655
0.07831623077392579
0.07829201507568359
0.07749978637695312
0.07610948944091797
0.07428382110595702
0.0721803741455078
0.0699433364868164
0.06772245788574217
0.06566094207763672
0.06387071990966797
0.06243492126464843
0.06140386581420898
0.06080102539062499
0.06064735794067382
0.06094718170166015
0.061676971435546867
0.06280572509765625
0.06429140472412109
0.066090576171875
0.06817063903808593
0.0704860382080078
0.07298011016845703
0.07559004974365234
0.078244873046875
0.08089070129394531
0.08349576568603514
0.08603643035888671
0.0884986572265625
0.09087815093994141
0.09317356872558594
0.09539437866210937
0.0975624313354492
0.09969509887695312
0.10180532836914062
0.10390408325195312
0.1059977035522461
0.10809651947021484
0.1102161865234375
0.11237258911132812
0.11458111572265625
0.11685400390625
0.1192003936767578
0.12162945556640625
0.12415022277832029
0.12676951599121092
0.12949188232421877
0.13231910705566405
0.13525100708007812
0.13828976440429688
0.14143928527832028
0.14470321655273435
0.14808485412597655
0.1515862579345703
0.1552081604003906
0.15895120239257812
0.1628153076171875
0.16679800415039062
0.17089428710937501
0.17509735107421875
0.1793984680175781
0.18378790283203122
0.18825491333007813
0.19278717041015622
0.19737089538574218
0.20199118041992187
0.20663243103027343
0.2112784423828125
0.21591241455078125
0.22051678466796873
0.22507304382324217
0.2295619354248047
0.23396405029296874
0.2382598419189453
0.24242953491210936
0.2464530639648437
0.2503100891113281
0.25398031616210937
0.25744396972656247
0.26068176269531246
0.2636748962402343
0.2664049682617187
0.26885412597656244
0.27100549316406247
0.27284326171875
0.2743529052734375
0.27552105712890623
0.27633575439453123
0.2767866821289063
0.27686529541015625
0.27656549072265624
0.2758830261230468
0.2748160705566406
0.27336480712890626
0.27153124999999995
0.2693197937011719
0.2667366027832031
0.2637898559570312
0.2604892883300781
0.2568462829589843
0.25287370300292966
0.24858592224121093
0.2439988098144531
0.2391296691894531
0.23399700927734374
0.22862048339843746
0.22302075195312498
0.2172193603515625
0.21123883056640624
0.20510231018066405
0.19883343505859374
0.1924562530517578
0.18599502563476564
0.17947421264648436
0.1729183197021484
0.16635177612304686
0.15979879760742186
0.15328306579589843
0.14682775878906248
0.14045526123046873
0.13418707275390623
0.1280436096191406
0.12204398345947265
0.11620588684082031
0.11054553222656249
0.10507758331298828
0.09981517791748046
0.09476987457275389
0.08995169067382812
0.08536907196044921
0.0810289306640625
0.07693669128417968
0.07309635925292968
0.06951053619384766
0.0661802978515625
0.06310530853271484
0.06028378677368164
0.057712615966796874
0.05538740539550781
0.05330254745483398
0.05145124053955078
0.049825565338134765
0.04841656112670898
0.04721430587768555
0.04620801925659179
0.045386127471923825
0.04473626708984375
0.04424541091918945
0.04389995956420898
0.0436859130859375
0.04358902740478515
0.04359496307373047
0.04368938446044922
0.04385811614990234
0.04408727264404297
0.04436341857910156
0.04467366790771484
0.045005760192871086
0.04534800720214844
0.04568928146362305
0.04601912689208984
0.04632773971557617
0.04660602951049804
0.04684558486938476
0.04703864669799804
0.04717808151245117
0.047257568359374995
0.0472716064453125
0.04721558380126953
0.047085723876953124
0.04687904357910156
0.046593307495117184
0.046227081298828125
0.045779762268066404
0.045251659393310543
0.0446438980102539
0.043958351135253905
0.04319763946533203
0.04236520004272461
0.04146527099609375
0.040502925872802735
0.03948388671874999
0.03841423797607422
0.03730031585693359
0.03614875793457031
0.03496639633178711
0.03376015472412109
0.032536987304687494
0.031303585052490236
0.03006628608703613
0.028831367492675782
0.027605115890502928
0.026393699645996093
0.025203140258789062
0.024039283752441406
0.02290771484375
0.021813987731933594
0.020763797760009764
0.019762590408325193
0.018815435409545896
0.017926912307739254
0.017101110458374022
0.016341802597045894
0.01565251159667969
0.015036449432373046
0.014496266365051268
0.014033899307250975
0.013650648117065428
0.013347466468811034
0.013124897956848144
0.01298290157318115
0.01292080783843994
0.012936959266662596
0.013028994560241697
0.013194511413574217
0.013431108474731444
0.013736093521118164
0.014106411933898924
0.01453873825073242
0.015029438018798826
0.015575258255004882
0.01617353057861328
0.01682137107849121
0.017515441894531247
0.018252243041992185
0.019028236389160156
0.019839468002319335
0.02068182945251465
0.021550460815429686
0.022439044952392576
0.023341293334960937
0.02425146102905273
0.025163908004760743
0.026073213577270507
0.026974580764770505
0.027863445281982417
0.028736333847045898
0.029591804504394532
0.03042835235595703
0.031243862152099608
0.03203534698486328
0.03279881286621093
0.033530693054199215
0.034228271484374996
0.03488908386230469
0.0355099868774414
0.03608699798583984
0.036615135192871094
0.03709264373779297
0.037521522521972654
0.03790142822265625
0.03823074722290039
0.038502735137939455
0.03870509338378906
0.03883381652832031
0.03889479064941406
0.0388969612121582
0.03885322570800781
0.03878131484985351
0.038701133728027345
0.03864669036865234
0.038667900085449215
0.038810909271240236
0.03911661529541015
0.03961476135253906
0.04032355117797851
0.04127034759521484
0.04249093246459961
0.04402545928955078
0.045912319183349606
0.04816290283203124
0.05076168823242187
0.053691371917724606
0.056928955078124996
0.06043495941162109
0.06415749359130858
0.06800291442871094
0.07184494018554687
0.07558380126953125
0.0791472930908203
0.08248434448242187
0.08556132507324218
0.08832510375976563
0.09070356750488281
0.09264053344726561
0.09411170196533203
0.09514146423339843
0.09579920196533202
0.09615930175781248
0.0963111343383789
0.09638499450683594
0.09654981994628906
0.0970413360595703
0.09812753295898438
0.10002074432373047
0.10288168334960937
0.10685362243652342
0.112072509765625
0.11870387268066405
0.12693810272216796
0.1369183349609375
0.1487215576171875
0.16237037658691406
0.1778337707519531
0.1950511474609375
0.21391400146484374
0.23422984313964842
0.2557241516113281
0.27804602050781246
0.30082214355468745
0.3237303466796875
0.3464879455566406
0.36879559326171873
0.39032540893554685
0.410706298828125
0.42953543090820306
0.4464542846679687
0.4611592102050781
0.4733683166503906
0.4828339233398437
0.4893672485351562
0.49286260986328123
0.49332641601562494
0.49086553955078127
0.4856414184570312
0.4778224487304687
0.4675556030273437
0.4549841918945312
0.44029367065429686
0.4237195434570312
0.40553985595703124
0.3860605773925781
0.36558020019531245
0.3443876037597656
0.3227874450683593
0.3010739135742187
0.279466064453125
0.25808163452148436
0.23693389892578123
0.21596713256835934
0.1951051025390625
0.17429049682617187
0.15349139404296872
0.13265184020996093
0.11168846130371093
0.09050245666503906
0.0689619903564453
0.04693651580810547
0.024334409713745116
0.0010143756866455077
-0.023220973968505858
-0.048422706604003905
-0.07446985626220703
-0.10106568908691406
-0.12766654968261718
-0.1537647705078125
-0.17905325317382811
-0.20308235168457028
-0.225282958984375
-0.2454380493164062
-0.26358642578124997
-0.28006500244140625
-0.29565249633789065
-0.31080792236328125
-0.3253362426757812
-0.33925155639648436
-0.3530512084960937
-0.36651385498046873
-0.3787921142578125
-0.3888547058105468
-0.3937523803710937
-0.3910498657226562
-0.38117300415039057
-0.36310876464843744
-0.33778268432617187
-0.3084400634765625
-0.273704833984375
-0.23371905517578126
-0.1864884338378906
-0.12477272796630859
-0.048683795928955075
0.03765083312988281
0.12398780822753906
0.19119975280761717
0.22697515869140622
0.22702581787109374
0.19499993896484374
0.14481654357910154
0.08826693725585938
0.031565443038940426
-0.023159912109374996
-0.07913453674316405
-0.13824044799804686
-0.19845135498046876
-0.255529296875
-0.303898681640625
-0.34040267944335934
-0.36488412475585935
-0.37876922607421876
-0.3845009155273437
-0.3840515747070313
-0.37921386718749994
-0.372553955078125
-0.3665552978515625
-0.36282806396484374
-0.36214501953124995
-0.36435418701171873
-0.36871246337890623
-0.3745126953125
-0.3809537048339844
-0.38682751464843745
-0.3909359130859375
-0.3925892639160156
-0.3915262756347656
-0.38789343261718745
-0.3821407470703124
-0.37470590209960936
-0.36601739501953123
-0.35663342285156246
-0.3471034545898437
-0.33775946044921873
-0.32878244018554686
-0.32022183227539064
-0.31202374267578126
-0.3041794738769531
-0.29670016479492184
-0.28956976318359373
-0.2827756042480469
-0.27631622314453125
-0.2702051086425781
-0.2644703979492188
-0.25912628173828123
-0.25415634155273437
-0.24953875732421874
-0.24526556396484372
-0.24134942626953124
-0.23780912780761718
-0.23464331054687498
-0.23183972167968747
-0.22938217163085936
-0.22724151611328125
-0.22538139343261718
-0.22373492431640624
-0.22220159912109375
-0.22070144653320312
-0.21917440795898435
-0.21757919311523435
-0.2159033508300781
-0.2141231994628906
-0.2122004241943359
-0.2100932922363281
-0.20774670410156248
-0.20511354064941406
-0.2021671142578125
-0.19888049316406248
-0.19522955322265623
-0.19121417236328123
-0.18684909057617186
-0.18218081665039063
-0.17729180908203124
-0.17224136352539063
-0.16706582641601564
-0.16178961181640622
-0.15641590881347656
-0.15095562744140623
-0.14542973327636718
-0.1398537139892578
-0.13424337768554687
-0.12861352539062498
-0.12297205352783201
-0.11733148193359375
-0.11170816040039062
-0.10610394287109373
-0.1005115966796875
-0.09490849304199218
-0.08925271606445312
-0.08351651763916015
-0.07768796539306641
-0.07176074218749999
-0.06573954772949218
-0.05962979888916015
-0.053435043334960936
-0.047169166564941405
-0.04085570526123047
-0.034517768859863275
-0.028178064346313474
-0.021856159210205076
-0.015567063331604004
-0.009331443786621093
-0.003175755977630615
0.002870077848434448
0.008771696090698241
0.014500257492065427
0.02003315734863281
0.025344852447509763
0.030406642913818355
0.035185356140136716
0.0396473388671875
0.043771835327148435
0.04755410766601562
0.050994411468505856
0.05408784866333007
0.056826889038085936
0.05920439910888672
0.06122232055664061
0.06289117813110351
0.0642124252319336
0.06517227935791016
0.06574070739746093
0.06588643646240233
0.0655953369140625
0.06487103271484373
0.0637340621948242
0.062205474853515616
0.06028968048095703
0.05797370910644531
0.05524184417724609
0.05209313583374023
0.048529731750488275
0.04454670333862304
0.04011830139160156
0.03520854187011719
0.029814735412597656
0.023982309341430662
0.017800405502319334
0.011358983993530273
0.004719525337219237
-0.002079253435134888
-0.009015851020812987
-0.016059514999389648
-0.023159976959228515
-0.03025630950927734
-0.037294364929199214
-0.0442374267578125
-0.05104263305664062
-0.05764838409423828
-0.06395914459228515
-0.06986878967285155
-0.07531999206542968
-0.08032100677490234
-0.08493470764160156
-0.0892202911376953
-0.09320515441894531
-0.0968976821899414
-0.10029819488525389
-0.10342437744140624
-0.10630522155761718
-0.10896388244628906
-0.11140606689453124
-0.11362664794921874
-0.1156370849609375
-0.11747361755371093
-0.11920654296875
-0.1209132080078125
-0.12263098144531248
-0.12434838867187499
-0.12601688385009763
-0.12759677124023436
-0.1290725402832031
-0.13043975830078122
-0.13169479370117185
-0.13282098388671876
-0.13380389404296875
-0.1346473083496094
-0.1353757629394531
-0.1360180969238281
-0.13658853149414063
-0.13708456420898438
-0.13748532104492187
-0.1377700500488281
-0.1379381866455078
-0.1380090026855469
-0.13801525878906248
-0.13798379516601564
-0.13793209838867185
-0.1378755645751953
-0.1378323516845703
-0.13782591247558593
-0.13787362670898437
-0.1379791259765625
-0.13813371276855468
-0.13832794189453124
-0.13855917358398434
-0.1388302001953125
-0.13914813232421874
-0.1395171203613281
-0.13993580627441407
-0.14040032958984375
-0.140905517578125
-0.14144708251953125
-0.1420205078125
-0.14261920166015624
-0.14323387145996092
-0.1438539123535156
-0.1444708557128906
-0.14507958984375
-0.14567762756347655
-0.14626181030273439
-0.14682736206054686
-0.14736895751953125
-0.14788131713867186
-0.14836041259765623
-0.14880230712890624
-0.14920193481445312
-0.14955358886718748
-0.14985203552246093
-0.15009327697753905
-0.15027450561523437
-0.1503939056396484
-0.15044998168945312
-0.150441650390625
-0.1503686065673828
-0.15023138427734373
-0.15003088378906249
-0.14976831054687498
-0.149445068359375
-0.14906265258789062
-0.14862295532226563
-0.14812820434570312
-0.14758085632324217
-0.14698365783691406
-0.146339599609375
-0.14565194702148437
-0.14492437744140624
-0.14416082763671872
-0.1433654632568359
-0.1425423583984375
-0.1416956024169922
-0.14082919311523437
-0.13994732666015625
-0.13905410766601561
-0.138153564453125
-0.13724957275390626
-0.13634588623046873
-0.1354463348388672
-0.13455490112304686
-0.133675537109375
-0.13281188964843751
-0.13196708679199218
-0.13114401245117188
-0.1303451232910156
-0.12957267761230468
-0.12882858276367187
-0.12811431884765623
-0.1274311294555664
-0.12678024291992185
-0.12616275024414064
-0.12557979583740234
-0.12503239440917968
-0.12452142333984376
-0.12404772949218748
-0.12361206817626953
-0.12321511840820311
-0.12285746765136718
-0.12253956604003904
-0.12226181030273436
-0.12202457427978515
-0.12182824707031249
-0.12167304229736327
-0.12155908203124999
-0.12148627471923827
-0.12145423126220702
-0.12146247863769531
-0.12151036071777344
-0.12159683227539062
-0.1217205810546875
-0.12188009643554686
-0.1220736846923828
-0.12229961395263672
-0.12255625915527342
-0.12284170532226563
-0.12315371704101562
-0.12348983764648436
-0.12384733581542967
-0.12422327423095703
-0.12461441040039062
-0.12501690673828125
-0.12542617797851563
-0.1258372573852539
-0.12624501037597655
-0.12664421081542968
-0.12702935791015627
-0.12739433288574217
-0.1277325210571289
-0.12803689575195312
-0.12830027770996094
-0.12851538085937497
-0.12867453002929688
-0.12876943969726562
-0.12879156494140626
-0.12873246765136717
-0.12858395385742188
-0.1283383331298828
-0.1279882354736328
-0.1275262451171875
-0.12694520568847656
-0.12623867797851562
-0.1254009552001953
-0.12442683410644531
-0.12331155395507812
-0.12205033111572265
-0.12063851928710936
-0.11907250976562499
-0.1173499526977539
-0.11546954345703125
-0.11343054199218748
-0.11123308563232422
-0.1088786163330078
-0.10637062835693357
-0.10371527099609375
-0.10092000579833983
-0.0979923858642578
-0.09494047546386718
-0.09177364349365234
-0.08850224304199218
-0.08513764190673827
-0.08169114685058593
-0.0781722412109375
-0.0745904541015625
-0.07095732116699219
-0.06728624725341796
-0.06359255218505859
-0.05989239883422851
-0.056200553894042965
-0.052531585693359376
-0.048901264190673824
-0.04532490921020508
-0.04181714630126953
-0.03838883972167969
-0.03504586791992187
-0.03179589462280273
-0.028650472640991208
-0.02562515068054199
-0.022739847183227538
-0.020011383056640623
-0.01744975471496582
-0.015063304901123046
-0.012858020782470702
-0.010832060813903808
-0.008971054077148438
-0.007246414184570312
-0.005628803730010986
-0.004090482711791991
-0.002606544256210327
-0.0011634659767150877
0.0002639598548412323
0.001721114158630371
0.0032260479927062984
0.004794069290161133
0.006499612808227539
0.008395669937133789
0.01052432632446289
0.012953359603881835
0.015655887603759765
0.01853647232055664
0.02157837677001953
0.02475186538696289
0.027813724517822266
0.030544155120849608
0.032968093872070316
0.034974384307861324
0.03650905990600586
0.037896591186523436
0.03803371429443359
0.035926002502441406
0.03293116760253906
0.029346961975097657
0.027883409500122067
0.03183293724060058
0.037715141296386714
0.04344626235961914
0.04607321166992188
0.041154857635498046
0.03333178329467773
0.026879203796386714
0.023175857543945313
0.025134830474853515
0.030842380523681635
0.0368625373840332
0.044581207275390625
0.05484152221679687
0.06434671783447266
0.07203058624267578
0.07452838134765624
0.06792822265625
0.058587875366210934
0.05242063140869141
0.05442079925537109
0.071333740234375
0.10163600158691406
0.1424945373535156
0.19256753540039062
0.24831503295898438
0.307988525390625
0.36942132568359376
0.4283204956054687
0.48029904174804683
0.5212232666015625
0.5480946044921875
0.5594483642578124
0.5547344360351562
0.5343765869140625
0.5000516052246093
0.45454080200195307
0.40171008300781247
0.34567929077148435
0.28984375
0.23707757568359372
0.19010119628906247
0.15107147216796873
0.1210127716064453
0.09991368103027344
0.08666712951660156
0.0794736099243164
0.07682823181152343
0.07723570251464844
0.07879572296142577
0.079846923828125
0.07935755920410155
0.07682003021240233
0.07242469024658203
0.0668747787475586
0.06072965240478515
0.05461216735839843
0.04940616607666015
0.04573195266723632
0.04391212081909179
0.04405810165405273
0.045928096771240226
0.049064785003662105
0.05302027893066406
0.05730992889404297
0.06140828704833984
0.06499577331542969
0.0679202880859375
0.07010136413574218
0.07156277465820311
0.07235494995117188
0.07253517150878906
0.07220777893066406
0.0715272216796875
0.07061392974853516
0.06950404357910155
0.06823060607910156
0.06687791442871094
0.065566650390625
0.06446117401123046
0.06369968032836913
0.06330799865722656
0.06325270843505859
0.06357553100585937
0.06434710693359375
0.0654138946533203
0.0665673828125
0.06787272644042967
0.06926794433593748
0.07067115783691406
0.07246147155761719
0.07349784851074218
0.07265673828125
0.07144766235351561
0.07028836059570312
0.07197828674316406
0.07989695739746093
0.09023064422607421
0.10043733978271484
0.10674689483642578
0.1039898223876953
0.09673416137695312
0.0888641891479492
0.08305809020996094
0.08372215270996093
0.08773887634277343
0.09194659423828125
0.09565251922607422
0.09693919372558593
0.09695480346679687
0.09716908264160155
0.09733029174804686
0.09764510345458983
0.09803787231445311
0.09823697662353514
0.09845513153076171
0.09886453247070312
0.09943107604980468
0.10015811920166015
0.10107604217529297
0.10219361877441406
0.10351264953613282
0.10503910827636719
0.10675582122802735
0.10863865661621093
0.11070800018310546
0.11298263549804687
0.11546126556396483
0.1181461181640625
0.1210352325439453
0.12412193298339842
0.12740370178222657
0.1308762512207031
0.13452670288085936
0.1383402404785156
0.1423014831542969
0.14639236450195312
0.15059420776367186
0.15488677978515625
0.15924737548828122
0.16365161132812497
0.1680741271972656
0.1724885559082031
0.17686813354492187
0.18118539428710936
0.18541207885742186
0.18951957702636718
0.19347915649414063
0.19726243591308593
0.20084158325195312
0.2041893157958984
0.20727908325195313
0.21008534240722657
0.21258389282226559
0.21475215148925778
0.2165692443847656
0.2180160217285156
0.21907504272460934
0.21973083496093748
0.2199699249267578
0.21978121948242188
0.21915626525878906
0.21808897399902344
0.2165758361816406
0.2146159210205078
0.21221096801757813
0.20936566162109374
0.20608729553222654
0.20238574218749997
0.19827322387695312
0.1937643280029297
0.18887591552734373
0.18362702941894532
0.17803884887695312
0.17213432312011717
0.16593809509277344
0.15947645568847657
0.1527772216796875
0.14586952209472656
0.13878366088867186
0.13155075073242187
0.12420253753662107
0.11677113342285154
0.10928890991210936
0.10178817749023436
0.09430101013183594
0.0868589630126953
0.0794928512573242
0.0722327423095703
0.06510773468017578
0.05814584350585937
0.05137383651733398
0.04481698608398437
0.03849893188476562
0.03244156265258789
0.026664890289306638
0.02118691062927246
0.016023443222045897
0.011188018798828124
0.0066918392181396485
0.00254379940032959
-0.001249506950378418
-0.004683789730072021
-0.0077570657730102535
-0.010469672203063964
-0.0128242130279541
-0.014825499534606932
-0.016480503082275392
-0.017798330307006834
-0.018790178298950192
-0.019469276428222652
-0.019850740432739256
-0.01995140647888183
-0.019789642333984375
-0.019385192871093748
-0.018758998870849607
-0.017933010101318356
-0.016929977416992186
-0.015773231506347653
-0.014486505508422851
-0.013093776702880859
-0.011619129180908202
-0.010086593627929687
-0.008519963264465332
-0.006942598819732666
-0.005377241134643555
-0.003845856666564941
-0.002369481801986694
-0.0009680720567703247
0.00033966004848480226
0.001536397933959961
0.0026063137054443356
0.0035351226329803464
0.004310120582580566
0.004920217037200927
0.005355984687805175
0.005609714031219482
0.005675438404083251
0.005548945426940918
0.005227779388427734
0.004711256027221679
0.004000479221343994
0.003098342180252075
0.0020094773769378663
0.000740179181098938
-0.0007017081975936889
-0.002306921005249023
-0.004064893722534179
-0.005963885307312011
-0.007991131305694581
-0.010132998466491698
-0.012375139236450195
-0.014702663421630858
-0.01710026931762695
-0.019552360534667967
-0.022043188095092772
-0.024557024002075194
-0.02707829666137695
-0.029591773986816405
-0.03208269500732421
-0.03453688049316406
-0.03694087219238281
-0.03928205108642578
-0.04154869079589843
-0.04373006057739258
-0.04581644821166991
-0.04779917907714844
-0.049670646667480466
-0.05142427825927734
-0.05305459213256836
-0.054557197570800776
-0.0559288101196289
-0.05716728591918945
-0.058271579742431634
-0.05924177551269531
-0.06007901000976562
-0.06078553009033203
-0.06136468124389648
-0.06182072448730469
-0.062158782958984374
-0.062384769439697264
-0.06250530624389648
-0.06252761459350585
-0.062459506988525385
-0.062309120178222654
-0.06208488845825195
-0.061795452117919925
-0.06144955062866211
-0.06105594635009765
-0.0606233901977539
-0.06016050720214843
-0.05967562866210937
-0.05917679214477539
-0.05867151260375976
-0.05816680908203125
-0.05766921997070312
-0.05718474960327148
-0.0567187271118164
-0.05627583312988281
-0.05586004638671875
-0.055474800109863276
-0.055123153686523436
-0.05480764007568359
-0.054530208587646484
-0.054292259216308585
-0.0540946044921875
-0.0539376106262207
-0.05382125473022461
-0.05374494171142578
-0.0537073974609375
-0.05370689392089843
-0.05374113845825195
-0.053807304382324214
-0.05390222930908203
-0.054022274017333984
-0.05416323089599609
-0.05432071685791015
-0.054489997863769526
-0.05466597747802734
-0.05484354782104492
-0.05501747512817382
-0.05518214797973633
-0.055331764221191404
-0.05546030807495117
-0.05556160354614257
-0.05562976837158203
-0.055659137725830074
-0.05564384841918945
-0.05557808685302734
-0.05545630264282226
-0.05527325439453125
-0.055024257659912104
-0.05470477676391602
-0.05431000137329101
-0.05383528518676758
-0.053276351928710934
-0.052629295349121086
-0.05189067077636718
-0.051057323455810544
-0.050126152038574213
-0.049094810485839836
-0.04796182250976562
-0.04672600936889648
-0.045386913299560544
-0.04394520568847656
-0.04240235900878906
-0.04076133728027344
-0.03902689743041992
-0.037204277038574214
-0.035299552917480465
-0.03332048797607422
-0.0312754955291748
-0.029173175811767576
-0.027023185729980467
-0.024834941864013672
-0.022617170333862305
-0.020379974365234373
-0.018134199142456054
-0.015891139030456542
-0.01366461944580078
-0.011469778060913085
-0.00932052707672119
-0.007230690002441405
-0.005213619232177735
-0.003281846284866333
-0.0014494483470916747
0.00027188426256179806
0.0018753434419631957
0.003353255271911621
0.004696110725402831
0.005889150142669677
0.006909158706665038
0.007736581325531005
0.00836053943634033
0.008772214889526366
0.00896777057647705
0.008950597763061523
0.008724281311035155
0.00830235195159912
0.007712355136871337
0.006978105545043945
0.006122077465057373
0.005161888122558593
0.00410096788406372
0.0029478702545166014
0.001724558353424072
0.00046693331003189084
-0.0007719103097915649
-0.001945586681365967
-0.0030320634841918943
-0.004016277313232421
-0.004886547565460205
-0.005648783206939697
-0.00631630802154541
-0.006932279586791992
-0.0075732188224792475
-0.008290963172912598
-0.009123233795166016
-0.010103188514709472
-0.011250666618347168
-0.012612389564514161
-0.014259584426879881
-0.01625907897949219
-0.0187159252166748
-0.021770713806152343
-0.025457746505737303
-0.029694293975830077
-0.03428966522216797
-0.03887944030761719
-0.04308118820190429
-0.046589496612548825
-0.04900845718383789
-0.049876525878906244
-0.0490162124633789
-0.04662874221801758
-0.04329471588134765
-0.04002508163452148
-0.037798114776611325
-0.0371808967590332
-0.038655441284179685
-0.042754291534423824
-0.04947385787963867
-0.058012844085693356
-0.06676828002929688
-0.07325751495361327
-0.0748384552001953
-0.06946148681640624
-0.05527701568603515
-0.03036533737182617
0.006364295959472656
0.05468732452392578
0.11308146667480469
0.17863224792480467
0.24772326660156246
0.31674826049804683
0.381707275390625
0.4380075073242187
0.4816820678710937
0.5101566162109376
0.5221326904296875
0.5175513305664062
0.49712811279296876
0.4622176818847656
0.41542358398437496
0.36070654296874993
0.3021284790039062
0.24289797973632812
0.18561529541015626
0.13251977539062498
0.08586722564697265
0.04757680130004883
0.018247339248657225
-0.0029590773582458497
-0.017410415649414063
-0.02617882537841797
-0.030180141448974608
-0.030476203918457026
-0.028737628936767578
-0.026912309646606444
-0.026136005401611324
-0.026630884170532224
-0.028128772735595702
-0.030310604095458982
-0.03302597045898437
-0.03613739776611328
-0.03907445526123047
-0.04095460510253906
-0.04129410171508789
-0.04004237747192383
-0.03749515151977539
-0.03418368911743164
-0.030489145278930662
-0.02665614318847656
-0.02303675079345703
-0.020053371429443356
-0.017988386154174803
-0.016986131668090817
-0.017034337997436522
-0.017963977813720704
-0.01962579345703125
-0.02190276527404785
-0.02466147804260254
-0.0277724437713623
-0.031107059478759764
-0.03453891372680664
-0.03793577194213867
-0.041158607482910156
-0.04409864807128906
-0.04668004608154296
-0.0488492202758789
-0.05057585906982422
-0.0518366470336914
-0.052612770080566404
-0.052916980743408205
-0.05279650115966796
-0.05230050659179687
-0.051476764678955074
-0.050364032745361324
-0.048987167358398434
-0.04738595581054687
-0.04561174774169921
-0.04372108459472656
-0.04177613067626953
-0.03981977081298828
-0.03787641143798828
-0.035966075897216794
-0.0341022720336914
-0.03229235076904297
-0.030540126800537106
-0.028836074829101558
-0.027157379150390622
-0.02548711585998535
-0.023813283920288083
-0.022126028060913083
-0.02042009353637695
-0.018684724807739257
-0.01690431213378906
-0.01506479549407959
-0.013153282165527344
-0.011158917427062988
-0.009073225021362305
-0.006887430191040039
-0.004592547416687011
-0.002182528257369995
0.000346547245979309
0.0029965929985046385
0.005767399787902831
0.008660300254821778
0.011677660942077636
0.014821205139160156
0.018092453002929686
0.02149194526672363
0.02501888275146484
0.028672023773193358
0.032449394226074214
0.0363467788696289
0.04035803985595703
0.04447542572021484
0.048689418792724606
0.05298939132690429
0.057363620758056635
0.06179867553710937
0.0662796173095703
0.07079045104980469
0.07531411743164061
0.07983241271972656
0.08432618713378906
0.08877501678466797
0.093157470703125
0.09745175933837891
0.10163586425781249
0.10568743896484374
0.10958395385742187
0.1133028335571289
0.11682154083251953
0.12011814117431639
0.12317134094238279
0.12596038818359373
0.12846516418457032
0.1306663360595703
0.13254553222656248
0.13408566284179688
0.13527107238769528
0.13608749389648436
0.13652226257324218
0.13656443786621095
0.13620481872558593
0.1354365234375
0.13425497436523437
0.13265773010253906
0.13064468383789063
0.12821803283691405
0.12538213348388672
0.12214386749267576
0.11851253509521484
0.11449971771240235
0.11011915588378905
0.10538680267333983
0.10032070159912108
0.09494093322753905
0.08926951599121093
0.0833300552368164
0.07714747619628906
0.0707479476928711
0.06415863800048827
0.057407463073730465
0.050523395538330074
0.04353601837158203
0.03647480010986328
0.029369619369506834
0.022250526428222655
0.015146547317504882
0.008087998390197753
0.0011054081916809081
-0.005775314331054687
-0.012529024124145508
-0.019130979537963864
-0.025560680389404292
-0.03179377365112304
-0.037801185607910154
-0.0435658950805664
-0.04907436370849609
-0.054300189971923825
-0.05922712707519531
-0.06383713912963866
-0.06809861755371094
-0.07201847839355469
-0.07563139343261718
-0.07893643188476562
-0.08193667602539062
-0.08467305755615234
-0.08714561462402344
-0.08937432861328123
-0.09143439483642578
-0.09328909301757811
-0.09482192230224608
-0.09602056884765624
-0.09689320373535155
-0.09729833984375
-0.0971731491088867
-0.09667247772216796
-0.09570870971679687
-0.0943520050048828
-0.09334523010253905
-0.09181993103027343
-0.08871697998046875
-0.08547779846191406
-0.08219292449951171
-0.08199701690673827
-0.09016365814208983
-0.10310157012939453
-0.11646499633789062
-0.123779296875
-0.11420742034912108
-0.09159659576416015
-0.06584681701660156
-0.04555117797851562
-0.043479118347167965
-0.05824457550048828
-0.07848406219482422
-0.09690567779541015
-0.10484686279296875
-0.10144672393798829
-0.0943447265625
-0.08740996551513672
-0.08337142944335937
-0.08320508575439452
-0.08408497619628906
-0.08486041259765624
-0.08579077148437499
-0.08671472930908201
-0.08799293518066406
-0.08977443695068359
-0.09169605255126953
-0.09361892700195311
